0.345108678534748
0.345108678534748
0.345108678534748
0.345108678534748
0.345108678534748
0.345108678534748
0.345108678534748
0.345108678534748
0.345108678534748
0.345108678534748
0.345108678534748
0.345108678534748
0.345108678534748
0.345108678534748
0.345108678534748
0.345108678534748
0.345108678534748
0.345108678534748
0.345108678534748
0.345108678534748
0.345108678534748
0.345108678534748
0.345108678534748
0.345108678534748
0.345108678534748
0.345108678534748
0.345108678534748
0.345108678534748
0.345108678534748
0.345108678534748
0.345108678534748
0.345108678534748
0.345108678534748
0.345108678534748
0.345108678534748
0.345108678534748
0.345108678534748
0.345108678534748
0.345108678534748
0.345108678534748
0.345108678534748
0.345108678534748
0.345108678534748
0.345108678534748
0.345108678534748
0.345108678534748
0.345108678534748
0.345108678534748
0.345108678534748
0.345108678534748
0.345108678534748
0.345108678534748
0.345108678534748
0.345108678534748
0.345108678534748
0.345108678534748
0.345108678534748
0.345108678534748
0.345108678534748
0.345108678534748
0.345108678534748
0.345108678534748
0.345108678534748
0.345108678534748
0.345108678534748
0.345108678534748
0.345108678534748
0.345108678534748
0.345108678534748
0.345108678534748
0.345108678534748
0.345108678534748
0.345108678534748
0.345108678534748
0.345108678534748
0.345108678534748
0.345108678534748
0.345108678534748
0.345108678534748
0.345108678534748
0.345108678534748
0.345108678534748
0.345108678534748
0.345108678534748
0.345108678534748
0.345108678534748
0.345108678534748
0.345108678534748
0.345108678534748
0.345108678534748
0.345108678534748
0.345108678534748
0.345108678534748
0.345108678534748
0.345108678534748
0.345108678534748
0.345108678534748
0.345108678534748
0.345108678534748
0.345108678534748
0.345108678534748
0.345108678534748
0.345108678534748
0.345108678534748
0.345108678534748
0.345108678534748
0.345108678534748
0.345108678534748
0.345108678534748
0.345108678534748
0.345108678534748
0.345108678534748
0.345108678534748
0.345108678534748
0.345108678534748
0.345108678534748
0.345108678534748
0.345108678534748
0.345108678534748
0.345108678534748
0.345108678534748
0.345108678534748
0.345108678534748
0.345108678534748
0.345108678534748
0.345108678534748
0.345108678534748
0.345108678534748
0.345108678534748
0.345108678534748
0.342198772645374
0.342198772645374
0.342198772645374
0.342198772645374
0.342198772645374
0.342198772645374
0.342198772645374
0.342198772645374
0.342198772645374
0.342198772645374
0.342198772645374
0.342198772645374
0.342198772645374
0.342198772645374
0.342198772645374
0.342198772645374
0.342198772645374
0.342198772645374
0.342198772645374
0.342198772645374
0.342198772645374
0.342198772645374
0.342198772645374
0.342198772645374
0.342198772645374
0.342198772645374
0.342198772645374
0.342198772645374
0.342198772645374
0.342198772645374
0.342198772645374
0.342198772645374
0.342198772645374
0.342198772645374
0.342198772645374
0.342198772645374
0.342198772645374
0.342198772645374
0.342198772645374
0.342198772645374
0.342198772645374
0.342198772645374
0.342198772645374
0.342198772645374
0.342198772645374
0.342198772645374
0.342198772645374
0.342198772645374
0.342198772645374
0.342198772645374
0.342198772645374
0.342198772645374
0.342198772645374
0.342198772645374
0.342198772645374
0.342198772645374
0.342198772645374
0.342198772645374
0.342198772645374
0.342198772645374
0.342198772645374
0.342198772645374
0.342198772645374
0.342198772645374
0.342198772645374
0.342198772645374
0.342198772645374
0.342198772645374
0.342198772645374
0.342198772645374
0.342198772645374
0.342198772645374
0.342198772645374
0.342198772645374
0.342198772645374
0.342198772645374
0.342198772645374
0.342198772645374
0.342198772645374
0.342198772645374
0.342198772645374
0.342198772645374
0.343656805548792
0.352845575287547
0.356791255498226
0.356791255498226
0.356791255498226
0.356791255498226
0.356791255498226
0.356791255498226
0.356791255498226
0.356791255498226
0.356791255498226
0.356791255498226
0.356791255498226
0.356791255498226
0.356791255498226
0.356791255498226
0.356791255498226
0.356791255498226
0.356791255498226
0.356791255498226
0.356791255498226
0.356791255498226
0.356791255498226
0.356791255498226
0.356791255498226
0.356791255498226
0.356791255498226
0.356791255498226
0.356791255498226
0.356791255498226
0.356791255498226
0.356791255498226
0.356791255498226
0.356791255498226
0.356791255498226
0.356791255498226
0.356791255498226
0.356791255498226
0.356791255498226
0.356791255498226
0.356791255498226
0.356791255498226
0.356791255498226
0.356791255498226
0.356791255498226
0.356791255498226
0.356791255498226
0.356791255498226
0.356791255498226
0.356791255498226
0.356791255498226
0.356791255498226
0.356791255498226
0.356791255498226
0.356791255498226
0.356791255498226
0.356791255498226
0.356791255498226
0.356791255498226
0.356791255498226
0.356791255498226
0.356791255498226
0.356791255498226
0.356791255498226
0.356791255498226
0.356791255498226
0.356791255498226
0.356791255498226
0.356791255498226
0.356791255498226
0.356791255498226
0.356791255498226
0.356791255498226
0.356791255498226
0.356791255498226
0.356791255498226
0.356791255498226
0.356791255498226
0.356791255498226
0.356791255498226
0.356791255498226
0.356791255498226
0.356791255498226
0.356791255498226
0.356791255498226
0.356791255498226
0.356791255498226
0.356791255498226
0.356791255498226
0.356791255498226
0.356791255498226
0.356791255498226
0.356791255498226
0.356791255498226
0.356791255498226
0.356791255498226
0.356791255498226
0.356791255498226
0.356791255498226
0.356791255498226
0.356791255498226
0.356791255498226
0.356791255498226
0.356791255498226
0.356791255498226
0.356791255498226
0.356791255498226
0.356791255498226
0.356791255498226
0.356791255498226
0.356791255498226
0.356791255498226
0.356791255498226
0.356791255498226
0.356791255498226
0.356791255498226
0.356791255498226
0.356791255498226
0.36
0.360277670693037
0.372424488990721
0.385616389693177
0.404969134626332
0.41545156155682
0.421188793773054
0.426262829718942
0.428252262107277
0.437492857084547
0.449666543118343
0.462817458616246
0.462817458616246
0.471380949975708
0.476445169982864
0.481144468948777
0.483321838943784
0.491528229097781
0.49799598391955
0.501896403653185
0.501896403653185
0.505173237612604
0.513030213535227
0.52268537381488
0.52268537381488
0.527257053058564
0.529244744895971
0.529244744895971
0.529244744895971
0.529244744895971
0.529244744895971
0.529244744895971
0.529244744895971
0.529244744895971
0.529244744895971
0.529244744895971
0.529244744895971
0.529244744895971
0.529244744895971
0.529244744895971
0.529244744895971
0.529244744895971
0.529244744895971
0.529244744895971
0.529244744895971
0.529244744895971
0.529244744895971
0.529244744895971
0.529244744895971
0.529244744895971
0.529244744895971
0.529244744895971
0.529244744895971
0.529244744895971
0.529244744895971
0.529244744895971
0.529244744895971
0.529244744895971
0.529244744895971
0.529244744895971
0.529244744895971
0.529244744895971
0.529244744895971
0.529244744895971
0.529244744895971
0.529244744895971
0.529244744895971
0.529244744895971
0.529244744895971
0.529244744895971
0.529244744895971
0.529244744895971
0.529244744895971
0.529244744895971
0.529244744895971
0.529244744895971
0.529244744895971
0.529244744895971
0.529244744895971
0.529244744895971
0.529244744895971
0.529244744895971
0.529244744895971
0.529244744895971
0.529244744895971
0.529244744895971
0.529244744895971
0.529244744895971
0.529244744895971
0.529244744895971
0.529244744895971
0.529244744895971
0.529244744895971
0.529244744895971
0.529244744895971
0.529244744895971
0.529244744895971
0.529244744895971
0.529244744895971
0.529244744895971
0.529244744895971
0.529244744895971
0.529244744895971
0.529244744895971
0.529244744895971
0.529244744895971
0.529244744895971
0.529244744895971
0.529244744895971
0.529244744895971
0.529244744895971
0.529244744895971
0.529244744895971
0.529244744895971
0.529244744895971
0.529244744895971
0.529244744895971
0.529244744895971
0.529244744895971
0.529244744895971
0.529244744895971
0.529244744895971
0.529244744895971
0.529244744895971
0.529244744895971
0.529244744895971
0.529244744895971
0.529244744895971
0.529244744895971
0.529244744895971
0.529244744895971
0.529244744895971
0.529244744895971
0.529244744895971
0.529244744895971
0.529244744895971
0.529244744895971
0.529244744895971
0.529244744895971
0.529244744895971
0.529244744895971
0.529244744895971
0.529244744895971
0.529244744895971
0.529244744895971
0.529244744895971
0.529244744895971
0.529244744895971
0.529244744895971
0.529244744895971
0.529244744895971
0.529244744895971
0.529244744895971
0.529244744895971
0.529244744895971
0.529244744895971
0.529244744895971
0.529244744895971
0.529244744895971
0.529244744895971
0.529244744895971
0.529244744895971
0.529244744895971
0.529244744895971
0.529244744895971
0.529244744895971
0.529244744895971
0.529244744895971
0.529244744895971
0.529244744895971
0.529244744895971
0.529244744895971
0.529244744895971
0.529244744895971
0.529244744895971
0.529244744895971
0.529244744895971
0.529244744895971
0.529244744895971
0.529244744895971
0.529244744895971
0.529244744895971
0.529244744895971
0.529244744895971
0.529244744895971
0.529244744895971
0.529244744895971
0.529244744895971
0.529244744895971
0.529244744895971
0.529244744895971
0.529244744895971
0.529244744895971
0.529244744895971
0.529244744895971
0.529244744895971
0.529244744895971
0.529244744895971
0.529244744895971
0.529244744895971
0.529244744895971
0.529244744895971
0.529244744895971
0.529244744895971
0.529244744895971
0.529244744895971
0.529244744895971
0.529244744895971
0.529244744895971
0.529244744895971
0.529244744895971
0.529244744895971
0.529244744895971
0.529244744895971
0.529244744895971
0.529244744895971
0.529244744895971
0.529244744895971
0.529244744895971
0.529244744895971
0.529244744895971
0.529244744895971
0.529244744895971
0.529244744895971
0.529244744895971
0.529244744895971
0.529244744895971
0.529244744895971
0.529244744895971
0.529244744895971
0.529244744895971
0.529244744895971
0.529244744895971
0.529244744895971
0.529244744895971
0.529244744895971
0.529244744895971
0.529244744895971
0.529244744895971
0.529244744895971
0.529244744895971
0.529244744895971
0.529244744895971
0.529244744895971
0.529244744895971
0.529244744895971
0.529244744895971
0.529244744895971
0.529244744895971
0.529244744895971
0.529244744895971
0.529244744895971
0.529244744895971
0.529244744895971
0.529244744895971
0.529244744895971
0.529244744895971
0.529244744895971
0.529244744895971
0.529244744895971
0.529244744895971
0.529244744895971
0.529244744895971
0.529244744895971
0.529244744895971
0.529244744895971
0.529244744895971
0.529244744895971
0.529244744895971
0.529244744895971
0.529244744895971
0.529244744895971
0.529244744895971
0.529244744895971
0.529244744895971
0.529244744895971
0.529244744895971
0.529244744895971
0.529244744895971
0.529244744895971
0.529244744895971
0.529244744895971
0.529244744895971
0.529244744895971
0.529244744895971
0.529244744895971
0.529244744895971
0.529244744895971
0.529244744895971
0.529244744895971
0.529244744895971
0.529244744895971
0.529244744895971
0.529244744895971
0.529244744895971
0.529244744895971
0.529244744895971
0.529244744895971
0.529244744895971
0.529244744895971
0.529244744895971
0.529244744895971
0.529244744895971
0.529244744895971
0.529244744895971
0.529244744895971
0.529244744895971
0.529244744895971
0.529244744895971
0.529244744895971
0.529244744895971
0.529244744895971
0.529244744895971
0.529244744895971
0.529244744895971
0.529244744895971
0.529244744895971
0.529244744895971
0.529244744895971
0.529244744895971
0.529244744895971
0.529244744895971
0.529244744895971
0.529244744895971
0.529244744895971
0.529244744895971
0.529244744895971
0.529244744895971
0.529244744895971
0.529244744895971
0.529244744895971
0.529244744895971
0.529244744895971
0.529244744895971
0.529244744895971
0.529244744895971
0.529244744895971
0.529244744895971
0.529244744895971
0.529244744895971
0.529244744895971
0.529244744895971
0.529244744895971
0.529244744895971
0.529244744895971
0.529244744895971
0.529244744895971
0.529244744895971
0.529244744895971
0.529244744895971
0.529244744895971
0.529244744895971
0.529244744895971
0.529244744895971
0.529244744895971
0.529244744895971
0.529244744895971
0.529244744895971
0.529244744895971
0.529244744895971
0.529244744895971
0.529244744895971
0.529244744895971
0.529244744895971
0.529244744895971
0.529244744895971
0.529244744895971
0.529244744895971
0.529244744895971
0.529244744895971
0.529244744895971
0.529244744895971
0.529244744895971
0.529244744895971
0.529244744895971
0.529244744895971
0.529244744895971
0.529244744895971
0.529244744895971
0.529244744895971
0.529244744895971
0.529244744895971
0.529244744895971
0.529244744895971
0.529244744895971
0.529244744895971
0.529244744895971
0.529244744895971
0.529244744895971
0.529244744895971
0.529244744895971
0.529244744895971
0.529244744895971
0.529244744895971
0.529244744895971
0.529244744895971
0.529244744895971
0.529244744895971
0.529244744895971
0.529244744895971
0.529244744895971
0.529244744895971
0.529244744895971
0.529244744895971
0.529244744895971
0.529244744895971
0.529244744895971
0.529244744895971
0.529244744895971
0.529244744895971
0.529244744895971
0.529244744895971
0.529244744895971
0.529244744895971
0.529244744895971
0.529244744895971
0.529244744895971
0.529244744895971
0.529244744895971
0.529244744895971
0.529244744895971
0.529244744895971
0.529244744895971
0.529244744895971
0.529244744895971
0.529244744895971
0.529244744895971
0.529244744895971
0.529244744895971
0.529244744895971
0.529244744895971
0.480104155366313
0.3989987468652
0.333466640010661
0.308382878902186
0.308382878902186
0.308382878902186
0.308382878902186
0.308382878902186
0.308382878902186
0.308382878902186
0.308382878902186
0.308382878902186
0.308382878902186
0.308382878902186
0.308382878902186
0.308382878902186
0.308382878902186
0.308382878902186
0.308382878902186
0.308382878902186
0.308382878902186
0.308382878902186
0.308382878902186
0.308382878902186
0.308382878902186
0.308382878902186
0.308382878902186
0.308382878902186
0.308382878902186
0.308382878902186
0.308382878902186
0.308382878902186
0.308382878902186
0.308382878902186
0.308382878902186
0.308382878902186
0.308382878902186
0.308382878902186
0.308382878902186
0.308382878902186
0.308382878902186
0.308382878902186
0.308382878902186
0.308382878902186
0.308382878902186
0.308382878902186
0.308382878902186
0.308382878902186
0.308382878902186
0.308382878902186
0.308382878902186
0.308382878902186
0.308382878902186
0.308382878902186
0.308382878902186
0.308382878902186
0.308382878902186
0.308382878902186
0.308382878902186
0.308382878902186
0.308382878902186
0.308382878902186
0.308382878902186
0.308382878902186
0.308382878902186
0.308382878902186
0.308382878902186
0.308382878902186
0.308382878902186
0.308382878902186
0.308382878902186
0.308382878902186
0.308382878902186
0.308382878902186
0.308382878902186
0.308382878902186
0.308382878902186
0.308382878902186
0.308382878902186
0.308382878902186
0.308382878902186
0.308382878902186
0.308382878902186
0.308382878902186
0.308382878902186
0.308382878902186
0.308382878902186
0.308382878902186
0.308382878902186
0.308382878902186
0.308382878902186
0.308382878902186
0.308382878902186
0.308382878902186
0.308382878902186
0.308382878902186
0.308382878902186
0.308382878902186
0.308382878902186
0.308382878902186
0.308382878902186
0.308382878902186
0.308382878902186
0.308382878902186
0.308382878902186
0.308382878902186
0.308382878902186
0.308382878902186
0.308382878902186
0.308382878902186
0.308382878902186
0.308382878902186
0.308382878902186
0.308382878902186
0.308382878902186
0.308382878902186
0.308382878902186
0.308382878902186
0.308382878902186
0.308382878902186
0.308382878902186
0.308382878902186
0.308382878902186
0.308382878902186
0.308382878902186
0.308382878902186
0.308382878902186
0.308382878902186
0.308382878902186
0.308382878902186
0.308382878902186
0.308382878902186
0.308382878902186
0.308382878902186
0.308382878902186
0.308382878902186
0.308382878902186
0.308382878902186
0.308382878902186
0.308382878902186
0.308382878902186
0.308382878902186
0.308382878902186
0.308382878902186
0.308382878902186
0.308382878902186
0.308382878902186
0.308382878902186
0.308382878902186
0.308382878902186
0.308382878902186
0.308382878902186
0.308382878902186
0.308382878902186
0.308382878902186
0.308382878902186
0.308382878902186
0.308382878902186
0.308382878902186
0.308382878902186
0.308382878902186
0.308382878902186
0.308382878902186
0.308382878902186
0.308382878902186
0.308382878902186
0.308382878902186
0.308382878902186
0.308382878902186
0.308382878902186
0.308382878902186
0.308382878902186
0.308382878902186
0.308382878902186
0.308382878902186
0.308382878902186
0.308382878902186
0.308382878902186
0.308382878902186
0.308382878902186
0.308382878902186
0.308382878902186
0.308382878902186
0.308382878902186
0.308382878902186
0.308382878902186
0.308382878902186
0.308382878902186
0.308382878902186
0.308382878902186
0.308382878902186
0.308382878902186
0.308382878902186
0.308382878902186
0.308382878902186
0.308382878902186
0.308382878902186
0.308382878902186
0.308382878902186
0.308382878902186
0.308382878902186
0.308382878902186
0.308382878902186
0.308382878902186
0.308382878902186
0.308382878902186
0.308382878902186
0.308382878902186
0.308382878902186
0.308382878902186
0.308382878902186
0.308382878902186
0.308382878902186
0.308382878902186
0.308382878902186
0.308382878902186
0.308382878902186
0.308382878902186
0.308382878902186
0.308382878902186
0.308382878902186
0.308382878902186
0.308382878902186
0.308382878902186
0.308382878902186
0.308382878902186
0.308382878902186
0.308382878902186
0.308382878902186
0.308382878902186
0.308382878902186
0.308382878902186
0.308382878902186
0.308382878902186
0.308382878902186
0.308382878902186
0.308382878902186
0.308382878902186
0.308382878902186
0.308382878902186
0.308382878902186
0.308382878902186
0.308382878902186
0.308382878902186
0.308382878902186
0.308382878902186
0.308382878902186
0.308382878902186
0.308382878902186
0.308382878902186
0.308382878902186
0.308382878902186
0.308382878902186
0.308382878902186
0.308382878902186
0.308382878902186
0.308382878902186
0.308382878902186
0.308382878902186
0.308382878902186
0.308382878902186
0.308382878902186
0.308382878902186
0.308382878902186
0.308382878902186
0.308382878902186
0.308382878902186
0.308382878902186
0.308382878902186
0.308382878902186
0.308382878902186
0.308382878902186
0.308382878902186
0.308382878902186
0.308382878902186
0.308382878902186
0.308382878902186
0.308382878902186
0.308382878902186
0.308382878902186
0.308382878902186
0.308382878902186
0.308382878902186
0.308382878902186
0.308382878902186
0.308382878902186
0.308382878902186
0.308382878902186
0.308382878902186
0.308382878902186
0.308382878902186
0.308382878902186
0.308382878902186
0.308382878902186
0.308382878902186
0.308382878902186
0.308382878902186
0.308382878902186
0.308382878902186
0.308382878902186
0.308382878902186
0.308382878902186
0.308382878902186
0.308382878902186
0.308382878902186
0.308382878902186
0.308382878902186
0.308382878902186
0.308382878902186
0.308382878902186
0.308382878902186
0.308382878902186
0.308382878902186
0.308382878902186
0.308382878902186
0.308382878902186
0.308382878902186
0.308382878902186
0.308382878902186
0.308382878902186
0.308382878902186
0.308382878902186
0.308382878902186
0.308382878902186
0.308382878902186
0.308382878902186
0.304466746952767
0.302654919008431
0.302654919008431
0.302654919008431
0.302654919008431
0.302654919008431
0.302654919008431
0.302654919008431
0.302654919008431
0.302654919008431
0.302654919008431
0.302654919008431
0.302654919008431
0.302654919008431
0.302654919008431
0.302654919008431
0.302654919008431
0.302654919008431
0.302654919008431
0.302654919008431
0.302654919008431
0.302654919008431
0.302654919008431
0.302654919008431
0.302654919008431
0.302654919008431
0.302654919008431
0.302654919008431
0.302654919008431
0.302654919008431
0.302654919008431
0.302654919008431
0.302654919008431
0.302654919008431
0.302654919008431
0.302654919008431
0.302654919008431
0.302654919008431
0.302654919008431
0.302654919008431
0.302654919008431
0.302654919008431
0.302654919008431
0.302654919008431
0.302654919008431
0.302654919008431
0.302654919008431
0.302654919008431
0.302654919008431
0.302654919008431
0.302654919008431
0.302654919008431
0.302654919008431
0.302654919008431
0.302654919008431
0.302654919008431
0.302654919008431
0.302654919008431
0.302654919008431
0.302654919008431
0.302654919008431
0.302654919008431
0.302654919008431
0.302654919008431
0.302654919008431
0.302654919008431
0.302654919008431
0.302654919008431
0.302654919008431
0.302654919008431
0.302654919008431
0.301330383466387
0.299332590941915
0.294788059459674
0.284429253066558
0.278208554864871
0.277668867538297
0.277668867538297
0.277668867538297
0.272763633939717
0.266270539113887
0.266270539113887
0.266270539113887
0.266270539113887
0.266270539113887
0.266270539113887
0.266270539113887
0.266270539113887
0.266270539113887
0.266270539113887
0.266270539113887
0.266270539113887
0.266270539113887
0.266270539113887
0.266270539113887
0.266270539113887
0.266270539113887
0.266270539113887
0.266270539113887
0.266270539113887
0.266270539113887
0.266270539113887
0.266270539113887
0.266270539113887
0.266270539113887
0.266270539113887
0.266270539113887
0.266270539113887
0.266270539113887
0.266270539113887
0.266270539113887
0.266270539113887
0.266270539113887
0.266270539113887
0.266270539113887
0.266270539113887
0.266270539113887
0.266270539113887
0.266270539113887
0.266270539113887
0.266270539113887
0.266270539113887
0.266270539113887
0.266270539113887
0.266270539113887
0.266270539113887
0.266270539113887
0.266270539113887
0.266270539113887
0.266270539113887
0.266270539113887
0.266270539113887
0.266270539113887
0.266270539113887
0.266270539113887
0.266270539113887
0.266270539113887
0.266270539113887
0.266270539113887
0.266270539113887
0.266270539113887
0.266270539113887
0.266270539113887
0.266270539113887
0.266270539113887
0.266270539113887
0.266270539113887
0.266270539113887
0.266270539113887
0.266270539113887
0.266270539113887
0.266270539113887
0.266270539113887
0.266270539113887
0.266270539113887
0.266270539113887
0.266270539113887
0.266270539113887
0.266270539113887
0.266270539113887
0.266270539113887
0.266270539113887
0.266270539113887
0.266270539113887
0.266270539113887
0.266270539113887
0.266270539113887
0.266270539113887
0.266270539113887
0.266270539113887
0.266270539113887
0.266270539113887
0.266270539113887
0.266270539113887
0.266270539113887
0.266270539113887
0.266270539113887
0.266270539113887
0.266270539113887
0.266270539113887
0.266270539113887
0.266270539113887
0.266270539113887
0.266270539113887
0.266270539113887
0.266270539113887
0.266270539113887
0.266270539113887
0.266270539113887
0.266270539113887
0.266270539113887
0.266270539113887
0.266270539113887
0.266270539113887
0.266270539113887
0.266270539113887
0.266270539113887
0.266270539113887
0.266270539113887
0.266270539113887
0.266270539113887
0.266270539113887
0.266270539113887
0.266270539113887
0.266270539113887
0.266270539113887
0.266270539113887
0.266270539113887
0.266270539113887
0.266270539113887
0.266270539113887
0.266270539113887
0.266270539113887
0.266270539113887
0.266270539113887
0.266270539113887
0.266270539113887
0.266270539113887
0.266270539113887
0.266270539113887
0.266270539113887
0.266270539113887
0.266270539113887
0.266270539113887
0.266270539113887
0.266270539113887
0.266270539113887
0.266270539113887
0.266270539113887
0.266270539113887
0.266270539113887
0.266270539113887
0.266270539113887
0.266270539113887
0.266270539113887
0.266270539113887
0.266270539113887
0.266270539113887
0.266270539113887
0.266270539113887
0.266270539113887
0.266270539113887
0.266270539113887
0.266270539113887
0.266270539113887
0.266270539113887
0.266270539113887
0.266270539113887
0.266270539113887
0.266270539113887
0.266270539113887
0.266270539113887
0.274772633280682
0.285306852353742
0.289482296522603
0.289482296522603
0.289482296522603
0.289482296522603
0.289482296522603
0.289482296522603
0.289482296522603
0.289482296522603
0.289482296522603
0.289482296522603
0.289482296522603
0.289482296522603
0.289482296522603
0.289482296522603
0.289482296522603
0.289482296522603
0.289482296522603
0.289482296522603
0.289482296522603
0.289482296522603
0.289482296522603
0.289482296522603
0.289482296522603
0.289482296522603
0.289482296522603
0.289482296522603
0.289482296522603
0.289482296522603
0.289482296522603
0.289482296522603
0.289482296522603
0.289482296522603
0.289482296522603
0.289482296522603
0.289482296522603
0.294788059459673
0.294788059459673
0.294788059459673
0.294788059459673
0.294788059459673
0.294788059459673
0.294788059459673
0.294788059459673
0.294788059459673
0.294788059459673
0.294788059459673
0.294788059459673
0.294788059459673
0.294788059459673
0.294788059459673
0.294788059459673
0.294788059459673
0.294788059459673
0.294788059459673
0.294788059459673
0.294788059459673
0.294788059459673
0.294788059459673
0.294788059459673
0.294788059459673
0.294788059459673
0.294788059459673
0.294788059459673
0.294788059459673
0.294788059459673
0.294788059459673
0.294788059459673
0.294788059459673
0.294788059459673
0.294788059459673
0.294788059459673
0.294788059459673
0.294788059459673
0.294788059459673
0.294788059459673
0.294788059459673
0.294788059459673
0.294788059459673
0.294788059459673
0.294788059459673
0.294788059459673
0.294788059459673
0.294788059459673
0.294788059459673
0.294788059459673
0.294788059459673
0.294788059459673
0.294788059459673
0.294788059459673
0.294788059459673
0.294788059459673
0.294788059459673
0.294788059459673
0.294788059459673
0.294788059459673
0.294788059459673
0.294788059459673
0.294788059459673
0.294788059459673
0.294788059459673
0.294788059459673
0.294788059459673
0.294788059459673
0.294788059459673
0.294788059459673
0.294788059459673
0.294788059459673
0.294788059459673
0.294788059459673
0.294788059459673
0.294788059459673
0.294788059459673
0.294788059459673
0.294788059459673
0.294788059459673
0.294788059459673
0.294788059459673
0.294788059459673
0.294788059459673
0.294788059459673
0.294788059459673
0.294788059459673
0.294788059459673
0.294788059459673
0.294788059459673
0.294788059459673
0.294788059459673
0.294788059459673
0.294788059459673
0.294788059459673
0.294788059459673
0.294788059459673
0.294788059459673
0.294788059459673
0.294788059459673
0.294788059459673
0.294788059459673
0.294788059459673
0.294788059459673
0.294788059459673
0.294788059459673
0.294788059459673
0.294788059459673
0.294788059459673
0.294788059459673
0.294788059459673
0.294788059459673
0.294788059459673
0.294788059459673
0.294788059459673
0.294788059459673
0.294788059459673
0.294788059459673
0.294788059459673
0.294788059459673
0.294788059459673
0.294788059459673
0.294788059459673
0.294788059459673
0.294788059459673
0.294788059459673
0.294788059459673
0.294788059459673
0.294788059459673
0.294788059459673
0.294788059459673
0.294788059459673
0.294788059459673
0.294788059459673
0.294788059459673
0.294788059459673
0.294788059459673
0.294788059459673
0.294788059459673
0.294788059459673
0.294788059459673
0.294788059459673
0.294788059459673
0.294788059459673
0.294788059459673
0.294788059459673
0.294788059459673
0.294788059459673
0.294788059459673
0.294788059459673
0.294788059459673
0.294788059459673
0.294788059459673
0.294788059459673
0.294788059459673
0.294788059459673
0.294788059459673
0.294788059459673
0.294788059459673
0.294788059459673
0.294788059459673
0.294788059459673
0.294788059459673
0.294788059459673
0.294788059459673
0.294788059459673
0.294788059459673
0.294788059459673
0.294788059459673
0.294788059459673
0.294788059459673
0.294788059459673
0.294788059459673
0.294788059459673
0.294788059459673
0.294788059459673
0.294788059459673
0.294788059459673
0.294788059459673
0.294788059459673
0.294788059459673
0.294788059459673
0.294788059459673
0.294788059459673
0.294788059459673
0.294788059459673
0.294788059459673
0.294788059459673
0.294788059459673
0.294788059459673
0.294788059459673
0.294788059459673
0.294788059459673
0.294788059459673
0.294788059459673
0.294788059459673
0.294788059459673
0.294788059459673
0.294788059459673
0.294788059459673
0.294788059459673
0.294788059459673
0.294788059459673
0.294788059459673
0.30854497241083
0.3104834939252
0.3104834939252
0.3104834939252
0.3104834939252
0.3104834939252
0.3104834939252
0.3104834939252
0.3104834939252
0.3104834939252
0.3104834939252
0.3104834939252
0.3104834939252
0.3104834939252
0.3104834939252
0.3104834939252
0.3104834939252
0.3104834939252
0.3104834939252
0.3104834939252
0.3104834939252
0.3104834939252
0.3104834939252
0.3104834939252
0.3104834939252
0.3104834939252
0.3104834939252
0.3104834939252
0.3104834939252
0.3104834939252
0.3104834939252
0.3104834939252
0.3104834939252
0.3104834939252
0.3104834939252
0.3104834939252
0.3104834939252
0.3104834939252
0.3104834939252
0.3104834939252
0.3104834939252
0.3104834939252
0.3104834939252
0.3104834939252
0.3104834939252
0.3104834939252
0.3104834939252
0.3104834939252
0.3104834939252
0.3104834939252
0.3104834939252
0.3104834939252
0.3104834939252
0.3104834939252
0.3104834939252
0.3104834939252
0.3104834939252
0.3104834939252
0.3104834939252
0.3104834939252
0.3104834939252
0.3104834939252
0.3104834939252
0.3104834939252
0.3104834939252
0.3104834939252
0.3104834939252
0.3104834939252
0.3104834939252
0.3104834939252
0.3104834939252
0.3104834939252
0.3104834939252
0.3104834939252
0.3104834939252
0.3104834939252
0.3104834939252
0.3104834939252
0.3104834939252
0.3104834939252
0.3104834939252
0.3104834939252
0.3104834939252
0.3104834939252
0.3104834939252
0.3104834939252
0.3104834939252
0.3104834939252
0.3104834939252
0.3104834939252
0.3104834939252
0.3104834939252
0.3104834939252
0.3104834939252
0.3104834939252
0.3104834939252
0.3104834939252
0.3104834939252
0.3104834939252
0.3104834939252
0.3104834939252
0.3104834939252
0.3104834939252
0.3104834939252
0.3104834939252
0.3104834939252
0.3104834939252
0.3104834939252
0.3104834939252
0.3104834939252
0.3104834939252
0.3104834939252
0.3104834939252
0.3104834939252
0.3104834939252
0.3104834939252
0.3104834939252
0.3104834939252
0.3104834939252
0.3104834939252
0.3104834939252
0.3104834939252
0.3104834939252
0.3104834939252
0.3104834939252
0.3104834939252
0.3104834939252
0.3104834939252
0.3104834939252
0.3104834939252
0.3104834939252
0.3104834939252
0.3104834939252
0.3104834939252
0.3104834939252
0.3104834939252
0.3104834939252
0.3104834939252
0.3104834939252
0.3104834939252
0.314801524773945
0.319843711834389
0.319843711834389
0.324037034920393
0.357631094844953
0.413642357598928
0.435430821141545
0.436463056855904
0.436463056855904
0.436463056855904
0.436463056855904
0.436463056855904
0.436463056855904
0.441021541423999
0.441021541423999
0.443057558337514
0.44407206622349
0.44407206622349
0.44407206622349
0.44407206622349
0.44407206622349
0.44407206622349
0.44407206622349
0.44407206622349
0.44407206622349
0.44407206622349
0.44407206622349
0.44407206622349
0.44407206622349
0.44407206622349
0.44407206622349
0.44407206622349
0.44407206622349
0.44407206622349
0.44407206622349
0.44407206622349
0.44407206622349
0.44407206622349
0.44407206622349
0.44407206622349
0.44407206622349
0.44407206622349
0.44407206622349
0.44407206622349
0.44407206622349
0.44407206622349
0.44407206622349
0.44407206622349
0.44407206622349
0.44407206622349
0.44407206622349
0.44407206622349
0.44407206622349
0.44407206622349
0.44407206622349
0.44407206622349
0.44407206622349
0.44407206622349
0.44407206622349
0.44407206622349
0.44407206622349
0.44407206622349
0.44407206622349
0.44407206622349
0.44407206622349
0.44407206622349
0.44407206622349
0.44407206622349
0.44407206622349
0.44407206622349
0.44407206622349
0.44407206622349
0.44407206622349
0.44407206622349
0.44407206622349
0.44407206622349
0.44407206622349
0.44407206622349
0.44407206622349
0.44407206622349
0.44407206622349
0.44407206622349
0.44407206622349
0.44407206622349
0.44407206622349
0.44407206622349
0.44407206622349
0.44407206622349
0.44407206622349
0.44407206622349
0.44407206622349
0.44407206622349
0.44407206622349
0.44407206622349
0.44407206622349
0.44407206622349
0.44407206622349
0.44407206622349
0.44407206622349
0.44407206622349
0.44407206622349
0.44407206622349
0.44407206622349
0.44407206622349
0.44407206622349
0.44407206622349
0.44407206622349
0.44407206622349
0.44407206622349
0.44407206622349
0.44407206622349
0.44407206622349
0.44407206622349
0.44407206622349
0.44407206622349
0.44407206622349
0.44407206622349
0.44407206622349
0.44407206622349
0.44407206622349
0.44407206622349
0.44407206622349
0.44407206622349
0.44407206622349
0.44407206622349
0.44407206622349
0.44407206622349
0.44407206622349
0.44407206622349
0.44407206622349
0.44407206622349
0.44407206622349
0.44407206622349
0.44407206622349
0.44407206622349
0.44407206622349
0.44407206622349
0.44407206622349
0.44407206622349
0.44407206622349
0.44407206622349
0.44407206622349
0.44407206622349
0.44407206622349
0.44407206622349
0.44407206622349
0.44407206622349
0.44407206622349
0.44407206622349
0.44407206622349
0.44407206622349
0.44407206622349
0.44407206622349
0.44407206622349
0.44407206622349
0.44407206622349
0.44407206622349
0.44407206622349
0.44407206622349
0.44407206622349
0.44407206622349
0.44407206622349
0.44407206622349
0.44407206622349
0.44407206622349
0.44407206622349
0.44407206622349
0.44407206622349
0.44407206622349
0.44407206622349
0.44407206622349
0.44407206622349
0.44407206622349
0.44407206622349
0.44407206622349
0.44407206622349
0.44407206622349
0.44407206622349
0.44407206622349
0.44407206622349
0.44407206622349
0.44407206622349
0.44407206622349
0.44407206622349
0.44407206622349
0.44407206622349
0.44407206622349
0.44407206622349
0.44407206622349
0.44407206622349
0.44407206622349
0.44407206622349
0.44407206622349
0.44407206622349
0.44407206622349
0.44407206622349
0.44407206622349
0.44407206622349
0.44407206622349
0.44407206622349
0.44407206622349
0.44407206622349
0.44407206622349
0.44407206622349
0.44407206622349
0.44407206622349
0.44407206622349
0.44407206622349
0.44407206622349
0.44407206622349
0.44407206622349
0.44407206622349
0.44407206622349
0.44407206622349
0.44407206622349
0.44407206622349
0.44407206622349
0.44407206622349
0.44407206622349
0.44407206622349
0.44407206622349
0.44407206622349
0.44407206622349
0.44407206622349
0.44407206622349
0.44407206622349
0.462925479964108
0.468081189538738
0.468081189538738
0.468081189538738
0.468081189538738
0.468081189538738
0.468081189538738
0.468081189538738
0.468081189538738
0.468081189538738
0.468081189538738
0.468081189538738
0.468081189538738
0.468081189538738
0.468081189538738
0.468081189538738
0.468081189538738
0.468081189538738
0.468081189538738
0.468081189538738
0.468081189538738
0.468081189538738
0.468081189538738
0.468081189538738
0.468081189538738
0.468081189538738
0.468081189538738
0.468081189538738
0.468081189538738
0.468081189538738
0.468081189538738
0.468081189538738
0.468081189538738
0.468081189538738
0.468081189538738
0.468081189538738
0.468081189538738
0.468081189538738
0.468081189538738
0.468081189538738
0.468081189538738
0.468081189538738
0.468081189538738
0.468081189538738
0.468081189538738
0.468081189538738
0.468081189538738
0.468081189538738
0.468081189538738
0.468081189538738
0.468081189538738
0.468081189538738
0.468081189538738
0.468081189538738
0.468081189538738
0.468081189538738
0.468081189538738
0.468081189538738
0.468081189538738
0.468081189538738
0.468081189538738
0.468081189538738
0.468081189538738
0.468081189538738
0.468081189538738
0.468081189538738
0.468081189538738
0.468081189538738
0.468081189538738
0.468081189538738
0.468081189538738
0.468081189538738
0.468081189538738
0.468081189538738
0.468081189538738
0.468081189538738
0.468081189538738
0.468081189538738
0.468081189538738
0.468081189538738
0.468081189538738
0.468081189538738
0.468081189538738
0.468081189538738
0.468081189538738
0.468081189538738
0.468081189538738
0.468081189538738
0.468081189538738
0.468081189538738
0.468081189538738
0.468081189538738
0.468081189538738
0.468081189538738
0.468081189538738
0.468081189538738
0.468081189538738
0.468081189538738
0.468081189538738
0.468081189538738
0.468081189538738
0.468081189538738
0.468081189538738
0.468081189538738
0.468081189538738
0.468081189538738
0.468081189538738
0.468081189538738
0.468081189538738
0.468081189538738
0.468081189538738
0.468081189538738
0.468081189538738
0.468081189538738
0.468081189538738
0.468081189538738
0.468081189538738
0.468081189538738
0.468081189538738
0.468081189538738
0.468081189538738
0.468081189538738
0.468081189538738
0.468081189538738
0.468081189538738
0.468081189538738
0.468081189538738
0.468081189538738
0.468081189538738
0.468081189538738
0.468081189538738
0.468081189538738
0.468081189538738
0.468081189538738
0.468081189538738
0.468081189538738
0.480416485978573
0.554616984954483
0.678011799307358
0.797245257119791
0.901054937281851
0.993327740476425
1.07214737792899
1.13749725274394
1.17089709197692
1.17885537705013
1.18033893437436
1.18101651131557
1.18101651131557
1.18101651131557
1.18101651131557
1.18101651131557
1.18101651131557
1.18101651131557
1.18101651131557
1.18101651131557
1.18101651131557
1.18101651131557
1.18101651131557
1.18101651131557
1.18101651131557
1.18101651131557
1.18101651131557
1.18101651131557
1.18101651131557
1.18101651131557
1.18101651131557
1.18101651131557
1.18101651131557
1.18101651131557
1.18101651131557
1.18101651131557
1.18101651131557
1.18101651131557
1.18101651131557
1.18101651131557
1.18101651131557
1.18101651131557
1.18101651131557
1.18101651131557
1.18101651131557
1.18101651131557
1.18101651131557
1.18101651131557
1.18101651131557
1.18101651131557
1.18101651131557
1.18101651131557
1.18101651131557
1.18101651131557
1.18101651131557
1.18101651131557
1.18101651131557
1.18101651131557
1.18101651131557
1.18101651131557
1.18101651131557
1.18101651131557
1.18101651131557
1.18101651131557
1.18101651131557
1.18101651131557
1.18101651131557
1.18101651131557
1.18101651131557
1.18101651131557
1.18101651131557
1.18101651131557
1.18101651131557
1.18101651131557
1.18101651131557
1.18101651131557
1.18101651131557
1.18101651131557
1.18101651131557
1.18101651131557
1.18101651131557
1.18101651131557
1.18101651131557
1.18101651131557
1.18101651131557
1.18101651131557
1.18101651131557
1.18101651131557
1.18101651131557
1.18101651131557
1.18101651131557
1.18101651131557
1.18101651131557
1.18101651131557
1.18101651131557
1.18101651131557
1.18101651131557
1.18101651131557
1.18101651131557
1.18101651131557
1.18101651131557
1.18101651131557
1.18101651131557
1.18101651131557
1.18101651131557
1.18101651131557
1.18101651131557
1.18101651131557
1.18101651131557
1.18101651131557
1.18101651131557
1.18101651131557
1.18101651131557
1.18101651131557
1.18101651131557
1.18101651131557
1.18101651131557
1.18101651131557
1.18101651131557
1.18101651131557
1.18101651131557
1.18101651131557
1.18101651131557
1.18101651131557
1.18101651131557
1.18101651131557
1.18101651131557
1.18101651131557
1.18101651131557
1.18101651131557
1.18101651131557
1.18101651131557
1.18101651131557
1.18101651131557
1.18101651131557
1.18101651131557
1.18101651131557
1.18101651131557
1.18101651131557
1.18101651131557
1.18101651131557
1.18101651131557
1.18101651131557
1.18101651131557
1.18101651131557
1.18101651131557
1.18101651131557
1.18101651131557
1.18101651131557
1.18101651131557
1.18101651131557
1.18101651131557
1.18101651131557
1.18101651131557
1.18101651131557
1.18101651131557
1.18101651131557
1.18101651131557
1.18101651131557
1.18101651131557
1.18101651131557
1.18101651131557
1.18101651131557
1.18101651131557
1.18101651131557
1.18101651131557
1.18101651131557
1.18101651131557
1.18101651131557
1.18101651131557
1.18101651131557
1.18101651131557
1.18101651131557
1.18101651131557
1.18101651131557
1.18101651131557
1.18101651131557
1.18101651131557
1.18101651131557
1.18101651131557
1.18101651131557
1.18101651131557
1.18101651131557
1.18101651131557
1.18101651131557
1.18101651131557
1.18101651131557
1.18101651131557
1.18101651131557
1.18101651131557
1.18101651131557
1.18101651131557
1.18101651131557
1.18101651131557
1.18101651131557
1.18101651131557
1.18101651131557
1.18101651131557
1.18101651131557
1.18101651131557
1.18101651131557
1.18101651131557
1.18101651131557
1.18101651131557
1.18101651131557
1.18101651131557
1.18101651131557
1.18101651131557
1.18101651131557
1.18101651131557
1.18101651131557
1.18101651131557
1.18101651131557
1.18101651131557
1.18101651131557
1.18101651131557
1.18101651131557
1.18101651131557
1.18101651131557
1.18101651131557
1.18101651131557
1.18101651131557
1.18101651131557
1.18101651131557
1.18101651131557
1.18101651131557
1.18101651131557
1.18101651131557
1.18101651131557
1.18101651131557
1.18101651131557
1.18101651131557
1.18101651131557
1.18101651131557
1.18101651131557
1.18101651131557
1.18101651131557
1.18101651131557
1.18101651131557
1.18101651131557
1.18101651131557
1.18101651131557
1.18101651131557
1.18101651131557
1.18101651131557
1.18101651131557
1.18101651131557
1.18101651131557
1.18101651131557
1.18101651131557
1.18101651131557
1.18101651131557
1.18101651131557
1.18101651131557
1.18101651131557
1.18101651131557
1.18101651131557
1.18101651131557
1.18101651131557
1.18101651131557
1.18101651131557
1.18101651131557
1.18101651131557
1.18101651131557
1.18101651131557
1.18101651131557
1.18101651131557
1.18101651131557
1.18101651131557
1.18101651131557
1.18101651131557
1.18101651131557
1.18101651131557
1.18101651131557
1.18101651131557
1.18101651131557
1.18101651131557
1.18101651131557
1.18101651131557
1.18101651131557
1.18101651131557
1.18101651131557
1.18101651131557
1.18101651131557
1.18101651131557
1.18101651131557
1.18101651131557
1.18101651131557
1.18101651131557
1.18101651131557
1.18101651131557
1.18101651131557
1.18101651131557
1.18101651131557
1.18101651131557
1.18101651131557
1.18101651131557
1.18101651131557
1.18101651131557
1.18101651131557
1.18101651131557
1.18101651131557
1.18101651131557
1.18101651131557
1.18101651131557
1.18101651131557
1.18101651131557
1.18101651131557
1.18101651131557
1.18101651131557
1.18101651131557
1.18101651131557
1.17881296226331
1.17830386573243
1.17217746096741
1.1716228061966
1.1716228061966
1.1716228061966
1.1716228061966
1.1716228061966
1.1716228061966
1.1716228061966
1.1716228061966
1.1716228061966
1.1716228061966
1.1716228061966
1.1716228061966
1.1716228061966
1.1716228061966
1.1716228061966
1.1716228061966
1.1716228061966
1.1716228061966
1.1716228061966
1.1716228061966
1.1716228061966
1.1716228061966
1.1716228061966
1.1716228061966
1.1716228061966
1.1716228061966
1.1716228061966
1.1716228061966
1.1716228061966
1.1716228061966
1.1716228061966
1.1716228061966
1.1716228061966
1.1716228061966
1.1716228061966
1.1716228061966
1.1716228061966
1.1716228061966
1.1716228061966
1.1716228061966
1.1716228061966
1.1716228061966
1.1716228061966
1.1716228061966
1.1716228061966
1.1716228061966
1.1716228061966
1.1716228061966
1.1716228061966
1.1716228061966
1.1716228061966
1.16361505662311
1.16361505662311
1.15952576512987
1.15952576512987
1.15849039702537
1.15654658358408
1.14982607380421
1.14913010577567
1.14455231422596
1.13450429703902
1.13450429703902
1.13450429703902
1.12915897906362
1.11310376874755
1.07023361935607
1.06719257868484
1.06719257868484
1.06719257868484
1.06719257868484
1.06212052046837
1.05517771015123
1.05057127316522
1.04728219692688
1.04110518200612
1.03715958270654
1.0340696301507
1.02742396312331
1.01528321171976
0.953362470417207
0.900666419935817
0.900666419935817
0.900666419935817
0.900666419935817
0.900666419935817
0.900666419935817
0.900666419935817
0.900666419935817
0.900666419935817
0.900666419935817
0.900666419935817
0.900666419935817
0.900666419935817
0.900666419935817
0.900666419935817
0.900666419935817
0.900666419935817
0.900666419935817
0.900666419935817
0.900666419935817
0.900666419935817
0.900666419935817
0.900666419935817
0.900666419935817
0.900666419935817
0.900666419935817
0.900666419935817
0.900666419935817
0.900666419935817
0.900666419935817
0.900666419935817
0.900666419935817
0.900666419935817
0.900666419935817
0.900666419935817
0.900666419935817
0.900666419935817
0.900666419935817
0.900666419935817
0.900666419935817
0.900666419935817
0.900666419935817
0.900666419935817
0.900666419935817
0.900666419935817
0.900666419935817
0.900666419935817
0.900666419935817
0.900666419935817
0.900666419935817
0.900666419935817
0.900666419935817
0.900666419935817
0.900666419935817
0.900666419935817
0.900666419935817
0.900666419935817
0.900666419935817
0.900666419935817
0.900666419935817
0.900666419935817
0.900666419935817
0.900666419935817
0.900666419935817
0.900666419935817
0.900666419935817
0.900666419935817
0.900666419935817
0.900666419935817
0.900666419935817
0.900666419935817
0.900666419935817
0.900666419935817
0.900666419935817
0.900666419935817
0.900666419935817
0.900666419935817
0.900666419935817
0.900666419935817
0.900666419935817
0.900666419935817
0.900666419935817
0.900666419935817
0.900666419935817
0.900666419935817
0.900666419935817
0.900666419935817
0.900666419935817
0.900666419935817
0.900666419935817
0.900666419935817
0.900666419935817
0.900666419935817
0.900666419935817
0.900666419935817
0.900666419935817
0.900666419935817
0.900666419935817
0.900666419935817
0.900666419935817
0.900666419935817
0.900666419935817
0.900666419935817
0.900666419935817
0.900666419935817
0.900666419935817
0.900666419935817
0.900666419935817
0.900666419935817
0.900666419935817
0.900666419935817
0.900666419935817
0.900666419935817
0.900666419935817
0.900666419935817
0.900666419935817
0.900666419935817
0.900666419935817
0.900666419935817
0.900666419935817
0.900666419935817
0.900666419935817
0.900666419935817
0.900666419935817
0.900666419935817
0.900666419935817
0.900666419935817
0.900666419935817
0.900666419935817
0.900666419935817
0.900666419935817
0.900666419935817
0.900666419935817
0.900666419935817
0.900666419935817
0.900666419935817
0.900666419935817
0.900666419935817
0.900666419935817
0.900666419935817
0.900666419935817
0.900666419935817
0.900666419935817
0.900666419935817
0.900666419935817
0.900666419935817
0.900666419935817
0.900666419935817
0.900666419935817
0.900666419935817
0.900666419935817
0.900666419935817
0.900666419935817
0.900666419935817
0.900666419935817
0.900666419935817
0.900666419935817
0.900666419935817
0.900666419935817
0.900666419935817
0.900666419935817
0.900666419935817
0.900666419935817
0.900666419935817
0.900666419935817
0.900666419935817
0.900666419935817
0.900666419935817
0.900666419935817
0.900666419935817
0.900666419935817
0.900666419935817
0.900666419935817
0.900666419935817
0.900666419935817
0.900666419935817
0.900666419935817
0.900666419935817
0.900666419935817
0.900666419935817
0.900666419935817
0.900666419935817
0.900666419935817
0.900666419935817
0.900666419935817
0.900666419935817
0.900666419935817
0.900666419935817
0.900666419935817
0.900666419935817
0.900666419935817
0.900666419935817
0.900666419935817
0.900666419935817
0.900666419935817
0.900666419935817
0.900666419935817
0.900666419935817
0.900666419935817
0.900666419935817
0.900666419935817
0.900666419935817
0.900666419935817
0.900666419935817
0.900666419935817
0.900666419935817
0.900666419935817
0.900666419935817
0.900666419935817
0.900666419935817
0.900666419935817
0.900666419935817
0.900666419935817
0.900666419935817
0.900666419935817
0.900666419935817
0.900666419935817
0.900666419935817
0.900666419935817
0.900666419935817
0.900666419935817
0.900666419935817
0.900666419935817
0.900666419935817
0.900666419935817
0.900666419935817
0.900666419935817
0.900666419935817
0.900666419935817
0.900666419935817
0.900666419935817
0.900666419935817
0.900666419935817
0.900666419935817
0.900666419935817
0.900666419935817
0.900666419935817
0.900666419935817
0.900666419935817
0.900666419935817
0.900666419935817
0.900666419935817
0.900666419935817
0.900666419935817
0.900666419935817
0.900666419935817
0.900666419935817
0.900666419935817
0.900666419935817
0.900666419935817
0.900666419935817
0.900666419935817
0.900666419935817
0.900666419935817
0.900666419935817
0.900666419935817
0.900666419935817
0.900666419935817
0.900666419935817
0.900666419935817
0.900666419935817
0.900666419935817
0.900666419935817
0.900666419935817
0.900666419935817
0.900666419935817
0.900666419935817
0.900666419935817
0.900666419935817
0.900666419935817
0.900666419935817
0.900666419935817
0.900666419935817
0.900666419935817
0.900666419935817
0.900666419935817
0.900666419935817
0.900666419935817
0.900666419935817
0.900666419935817
0.900666419935817
0.900666419935817
0.900666419935817
0.900666419935817
0.900666419935817
0.900666419935817
0.900666419935817
0.900666419935817
0.900666419935817
0.900666419935817
0.900666419935817
0.900666419935817
0.900666419935817
0.900666419935817
0.900666419935817
0.900666419935817
0.900666419935817
0.900666419935817
0.900666419935817
0.900666419935817
0.900666419935817
0.900666419935817
0.900666419935817
0.900666419935817
0.900666419935817
0.900666419935817
0.900666419935817
0.900666419935817
0.900666419935817
0.900666419935817
0.900666419935817
0.900666419935817
0.900666419935817
0.900666419935817
0.900666419935817
0.900666419935817
0.900666419935817
0.900666419935817
0.900666419935817
0.900666419935817
0.900666419935817
0.900666419935817
0.900666419935817
0.900666419935817
0.900666419935817
0.900666419935817
0.900666419935817
0.900666419935817
0.900666419935817
0.900666419935817
0.900666419935817
0.900666419935817
0.900666419935817
0.900666419935817
0.900666419935817
0.900666419935817
0.900666419935817
0.900666419935817
0.900666419935817
0.900666419935817
0.900666419935817
0.900666419935817
0.900666419935817
0.900666419935817
0.900666419935817
0.900666419935817
0.900666419935817
0.900666419935817
0.900666419935817
0.900666419935817
0.900666419935817
0.900666419935817
0.900666419935817
0.900666419935817
0.900666419935817
0.900666419935817
0.900666419935817
0.900666419935817
0.900666419935817
0.900666419935817
0.900666419935817
0.900666419935817
0.900666419935817
0.900666419935817
0.900666419935817
0.900666419935817
0.900666419935817
0.900666419935817
0.900666419935817
0.900666419935817
0.900666419935817
0.900666419935817
0.900666419935817
0.900666419935817
0.900666419935817
0.900666419935817
0.900666419935817
0.900666419935817
0.900666419935817
0.900666419935817
0.900666419935817
0.900666419935817
0.900666419935817
0.900666419935817
0.900666419935817
0.92633687176966
0.94957885401898
0.94957885401898
0.94957885401898
0.94957885401898
0.953886785735079
0.986610358753647
0.992673158698269
1.01029698603925
1.04057676314629
1.07536040470161
1.10408333018844
1.11910678668302
1.13578166916006
1.15663304466023
1.17111058401844
1.17635028796698
1.17635028796698
1.17635028796698
1.17635028796698
1.17635028796698
1.17635028796698
1.17635028796698
1.17635028796698
1.17635028796698
1.17635028796698
1.17635028796698
1.17635028796698
1.17635028796698
1.17635028796698
1.17635028796698
1.17635028796698
1.17635028796698
1.17635028796698
1.17635028796698
1.17635028796698
1.17635028796698
1.17635028796698
1.17635028796698
1.17635028796698
1.17635028796698
1.17635028796698
1.17635028796698
1.17635028796698
1.17635028796698
1.17635028796698
1.17635028796698
1.17635028796698
1.17635028796698
1.17635028796698
1.17635028796698
1.17635028796698
1.17635028796698
1.17635028796698
1.17635028796698
1.17635028796698
1.17635028796698
1.17635028796698
1.17635028796698
1.17635028796698
1.17635028796698
1.17635028796698
1.17635028796698
1.17635028796698
1.17635028796698
1.17635028796698
1.17635028796698
1.17635028796698
1.17635028796698
1.17635028796698
1.17635028796698
1.17635028796698
1.17635028796698
1.17635028796698
1.17635028796698
1.17635028796698
1.17635028796698
1.17635028796698
1.17635028796698
1.17635028796698
1.17635028796698
1.17635028796698
1.17635028796698
1.17635028796698
1.17635028796698
1.17635028796698
1.17635028796698
1.17635028796698
1.17635028796698
1.17635028796698
1.17635028796698
1.17635028796698
1.17635028796698
1.17635028796698
1.17635028796698
1.17635028796698
1.17635028796698
1.17635028796698
1.17635028796698
1.17635028796698
1.17635028796698
1.17635028796698
1.17635028796698
1.17635028796698
1.17635028796698
1.17635028796698
1.17635028796698
1.17635028796698
1.17635028796698
1.17635028796698
1.17635028796698
1.17635028796698
1.17635028796698
1.17635028796698
1.17635028796698
1.17635028796698
1.17635028796698
1.17635028796698
1.17524465538032
1.17383985279083
1.17179349716578
1.15931013969515
1.1473883387938
1.13885907820063
1.12756374542639
1.11789981662043
1.10258786497948
1.09132946446066
1.09132946446066
1.09132946446066
1.09132946446066
1.09132946446066
1.09132946446066
1.09036691072317
1.08425089347438
1.07200746266059
1.0567402708329
1.04532291661477
1.03725599540326
1.02907725657503
1.0197058399362
1.00985147422777
1.00109939566459
0.988281336462447
0.976678043164686
0.972368243002619
0.967005687677172
0.960572745813663
0.955928867646542
0.945832966226067
0.933916484488843
0.922713389953782
0.911427451857799
0.900666419935817
0.900666419935817
0.900666419935817
0.900666419935817
0.900666419935817
0.900666419935817
0.900666419935817
0.900666419935817
0.900666419935817
0.900666419935817
0.900666419935817
0.900666419935817
0.900666419935817
0.900666419935817
0.900666419935817
0.900666419935817
0.900666419935817
0.900666419935817
0.900666419935817
0.900666419935817
0.900666419935817
0.900666419935817
0.900666419935817
0.900666419935817
0.900666419935817
0.900666419935817
0.900666419935817
0.900666419935817
0.900666419935817
0.900666419935817
0.900666419935817
0.900666419935817
0.900666419935817
0.900666419935817
0.900666419935817
0.900666419935817
0.900666419935817
0.900666419935817
0.900666419935817
0.900666419935817
0.900666419935817
0.900666419935817
0.900666419935817
0.900666419935817
0.900666419935817
0.900666419935817
0.900666419935817
0.900666419935817
0.900666419935817
0.900666419935817
0.900666419935817
0.900666419935817
0.900666419935817
0.900666419935817
0.900666419935817
0.900666419935817
0.900666419935817
0.900666419935817
0.900666419935817
0.900666419935817
0.900666419935817
0.900666419935817
0.900666419935817
0.900666419935817
0.900666419935817
0.900666419935817
0.900666419935817
0.900666419935817
0.900666419935817
0.900666419935817
0.900666419935817
0.900666419935817
0.900666419935817
0.900666419935817
0.900666419935817
0.900666419935817
0.900666419935817
0.900666419935817
0.900666419935817
0.900666419935817
0.900666419935817
0.900666419935817
0.900666419935817
0.900666419935817
0.900666419935817
0.900666419935817
0.900666419935817
0.900666419935817
0.900666419935817
0.900666419935817
0.900666419935817
0.900666419935817
0.900666419935817
0.900666419935817
0.900666419935817
0.900666419935817
0.900666419935817
0.900666419935817
0.900666419935817
0.900666419935817
0.900666419935817
0.900666419935817
0.900666419935817
0.900666419935817
0.900666419935817
0.900666419935817
0.900666419935817
0.900666419935817
0.900666419935817
0.900666419935817
0.900666419935817
0.900666419935817
0.900666419935817
0.900666419935817
0.900666419935817
0.900666419935817
0.900666419935817
0.900666419935817
0.900666419935817
0.900666419935817
0.900666419935817
0.900666419935817
0.900666419935817
0.900666419935817
0.900666419935817
0.900666419935817
0.900666419935817
0.900666419935817
0.900666419935817
0.900666419935817
0.900666419935817
0.900666419935817
0.900666419935817
0.900666419935817
0.900666419935817
0.900666419935817
0.900666419935817
0.900666419935817
0.900666419935817
0.900666419935817
0.900666419935817
0.900666419935817
0.900666419935817
0.900666419935817
0.900666419935817
0.900666419935817
0.900666419935817
0.900666419935817
0.900666419935817
0.900666419935817
0.900666419935817
0.900666419935817
0.900666419935817
0.900666419935817
0.900666419935817
0.900666419935817
0.900666419935817
0.900666419935817
0.900666419935817
0.900666419935817
0.900666419935817
0.900666419935817
0.900666419935817
0.900666419935817
0.900666419935817
0.900666419935817
0.900666419935817
0.900666419935817
0.900666419935817
0.900666419935817
0.900666419935817
0.900666419935817
0.900666419935817
0.900666419935817
0.900666419935817
0.900666419935817
0.900666419935817
0.900666419935817
0.900666419935817
0.900666419935817
0.900666419935817
0.900666419935817
0.900666419935817
0.9171150418568
0.942231394085338
0.98701570402907
1.05952819688765
1.14656007256489
1.22588743365776
1.29313572373514
1.34041038491948
1.37342637225299
1.39699677880803
1.43206145119544
1.45910931735768
1.48276768241016
1.48808601901906
1.48808601901906
1.48808601901906
1.48919441309723
1.49936653290648
1.50462619942629
1.50462619942629
1.50834346221277
1.52207095761006
1.53766056072203
1.55009677117269
1.55627761019684
1.55797946071185
1.56364957711119
1.5694903631434
1.57143246752764
1.57143246752764
1.57143246752764
1.57143246752764
1.57143246752764
1.57143246752764
1.57143246752764
1.57143246752764
1.57143246752764
1.57143246752764
1.57143246752764
1.57143246752764
1.57143246752764
1.57143246752764
1.57143246752764
1.57143246752764
1.57143246752764
1.57143246752764
1.57143246752764
1.57143246752764
1.57143246752764
1.57143246752764
1.57143246752764
1.57143246752764
1.57143246752764
1.57143246752764
1.57143246752764
1.57143246752764
1.57143246752764
1.57143246752764
1.57143246752764
1.57143246752764
1.57143246752764
1.57143246752764
1.57143246752764
1.57143246752764
1.57143246752764
1.57143246752764
1.57143246752764
1.57143246752764
1.57143246752764
1.57143246752764
1.57143246752764
1.57143246752764
1.57143246752764
1.57143246752764
1.57143246752764
1.57143246752764
1.57143246752764
1.57143246752764
1.57143246752764
1.57143246752764
1.57143246752764
1.57143246752764
1.57143246752764
1.57143246752764
1.57143246752764
1.57143246752764
1.57143246752764
1.57143246752764
1.57143246752764
1.57143246752764
1.57143246752764
1.57143246752764
1.57143246752764
1.57143246752764
1.57143246752764
1.57143246752764
1.57143246752764
1.57143246752764
1.57143246752764
1.57143246752764
1.57143246752764
1.57143246752764
1.57143246752764
1.57143246752764
1.57143246752764
1.57143246752764
1.57143246752764
1.57143246752764
1.57143246752764
1.57143246752764
1.57143246752764
1.57143246752764
1.57143246752764
1.57143246752764
1.57143246752764
1.57143246752764
1.57143246752764
1.57143246752764
1.57143246752764
1.57143246752764
1.57143246752764
1.57143246752764
1.57143246752764
1.57143246752764
1.57143246752764
1.57143246752764
1.57143246752764
1.57143246752764
1.57143246752764
1.57143246752764
1.57143246752764
1.57143246752764
1.57143246752764
1.57143246752764
1.57143246752764
1.57143246752764
1.57143246752764
1.57143246752764
1.57143246752764
1.57143246752764
1.57143246752764
1.57143246752764
1.57143246752764
1.57143246752764
1.57143246752764
1.57143246752764
1.57143246752764
1.57143246752764
1.57143246752764
1.57143246752764
1.57143246752764
1.57143246752764
1.57143246752764
1.57143246752764
1.57143246752764
1.57143246752764
1.57143246752764
1.57143246752764
1.57143246752764
1.57143246752764
1.57143246752764
1.57143246752764
1.57143246752764
1.57143246752764
1.57143246752764
1.57143246752764
1.57143246752764
1.57143246752764
1.57143246752764
1.57143246752764
1.57143246752764
1.57143246752764
1.57143246752764
1.57143246752764
1.57143246752764
1.57143246752764
1.57143246752764
1.57143246752764
1.57143246752764
1.57143246752764
1.57143246752764
1.57143246752764
1.57143246752764
1.57143246752764
1.57143246752764
1.57143246752764
1.57143246752764
1.57143246752764
1.57143246752764
1.57143246752764
1.57143246752764
1.57143246752764
1.57143246752764
1.57143246752764
1.57143246752764
1.57143246752764
1.57143246752764
1.57143246752764
1.57143246752764
1.57143246752764
1.57143246752764
1.57143246752764
1.57143246752764
1.57143246752764
1.57143246752764
1.57143246752764
1.57143246752764
1.57143246752764
1.57143246752764
1.57143246752764
1.57143246752764
1.57143246752764
1.57143246752764
1.57143246752764
1.57143246752764
1.57143246752764
1.57143246752764
1.57143246752764
1.57143246752764
1.57143246752764
1.57143246752764
1.57143246752764
1.57143246752764
1.57143246752764
1.57143246752764
1.57143246752764
1.57143246752764
1.57143246752764
1.57143246752764
1.57143246752764
1.57143246752764
1.57143246752764
1.57143246752764
1.57143246752764
1.57143246752764
1.57143246752764
1.57143246752764
1.57143246752764
1.57143246752764
1.57143246752764
1.57143246752764
1.57143246752764
1.57143246752764
1.57143246752764
1.57143246752764
1.57143246752764
1.57143246752764
1.57143246752764
1.57143246752764
1.57143246752764
1.57143246752764
1.57143246752764
1.57143246752764
1.57143246752764
1.57143246752764
1.57143246752764
1.57143246752764
1.57143246752764
1.57143246752764
1.57143246752764
1.57143246752764
1.57143246752764
1.57143246752764
1.57143246752764
1.57143246752764
1.57143246752764
1.57143246752764
1.57143246752764
1.57143246752764
1.57143246752764
1.57143246752764
1.57143246752764
1.57143246752764
1.57143246752764
1.57143246752764
1.57143246752764
1.57143246752764
1.57143246752764
1.57143246752764
1.57143246752764
1.57143246752764
1.57143246752764
1.57143246752764
1.57143246752764
1.57143246752764
1.57143246752764
1.57143246752764
1.57143246752764
1.57143246752764
1.57143246752764
1.57143246752764
1.57143246752764
1.57143246752764
1.57143246752764
1.57143246752764
1.57143246752764
1.57143246752764
1.57143246752764
1.57143246752764
1.57143246752764
1.57143246752764
1.57143246752764
1.57143246752764
1.57143246752764
1.57143246752764
1.57143246752764
1.57143246752764
1.57143246752764
1.57143246752764
1.57143246752764
1.57143246752764
1.57143246752764
1.57143246752764
1.57143246752764
1.57143246752764
1.57143246752764
1.57143246752764
1.57143246752764
1.57143246752764
1.57143246752764
1.57143246752764
1.57143246752764
1.57143246752764
1.57143246752764
1.57143246752764
1.57143246752764
1.57143246752764
1.57143246752764
1.57143246752764
1.57143246752764
1.57143246752764
1.57143246752764
1.57143246752764
1.57143246752764
1.57143246752764
1.57143246752764
1.57143246752764
1.57143246752764
1.57143246752764
1.57143246752764
1.57143246752764
1.57143246752764
1.57143246752764
1.57143246752764
1.57143246752764
1.57143246752764
1.57143246752764
1.57143246752764
1.57143246752764
1.57143246752764
1.57143246752764
1.57143246752764
1.57143246752764
1.57143246752764
1.57143246752764
1.57143246752764
1.57143246752764
1.57143246752764
1.57143246752764
1.57143246752764
1.57143246752764
1.57143246752764
1.57143246752764
1.57143246752764
1.57143246752764
1.57143246752764
1.57143246752764
1.57143246752764
1.57143246752764
1.57143246752764
1.57143246752764
1.57143246752764
1.57143246752764
1.57143246752764
1.57143246752764
1.57143246752764
1.57143246752764
1.57143246752764
1.57143246752764
1.57143246752764
1.57143246752764
1.57143246752764
1.57143246752764
1.57143246752764
1.57143246752764
1.57143246752764
1.57143246752764
1.57143246752764
1.57143246752764
1.57143246752764
1.57143246752764
1.57143246752764
1.57143246752764
1.57143246752764
1.57143246752764
1.57143246752764
1.57143246752764
1.57143246752764
1.57143246752764
1.57143246752764
1.57143246752764
1.57143246752764
1.57143246752764
1.57143246752764
1.57143246752764
1.57143246752764
1.57143246752764
1.57143246752764
1.57143246752764
1.57143246752764
1.57143246752764
1.57143246752764
1.5675458525989
1.56022434284304
1.56022434284304
1.56022434284304
1.56022434284304
1.52200525623271
1.45876660230484
1.40484874630688
1.37247950804374
1.32721512950991
1.25861034478507
1.1798728745081
1.10661646472479
1.05285326612971
1.01237344888139
0.953781945729735
0.900666419935817
0.900666419935817
0.900666419935817
0.900666419935817
0.900666419935817
0.900666419935817
0.900666419935817
0.900666419935817
0.900666419935817
0.900666419935817
0.900666419935817
0.900666419935817
0.900666419935817
0.900666419935817
0.900666419935817
0.900666419935817
0.900666419935817
0.900666419935817
0.900666419935817
0.900666419935817
0.900666419935817
0.900666419935817
0.900666419935817
0.900666419935817
0.900666419935817
0.900666419935817
0.900666419935817
0.900666419935817
0.900666419935817
0.900666419935817
0.900666419935817
0.900666419935817
0.900666419935817
0.900666419935817
0.900666419935817
0.900666419935817
0.900666419935817
0.900666419935817
0.900666419935817
0.900666419935817
0.900666419935817
0.900666419935817
0.900666419935817
0.900666419935817
0.900666419935817
0.900666419935817
0.900666419935817
0.900666419935817
0.900666419935817
0.900666419935817
0.900666419935817
0.900666419935817
0.900666419935817
0.900666419935817
0.900666419935817
0.900666419935817
0.900666419935817
0.900666419935817
0.900666419935817
0.900666419935817
0.900666419935817
0.900666419935817
0.900666419935817
0.900666419935817
0.900666419935817
0.900666419935817
0.900666419935817
0.900666419935817
0.900666419935817
0.900666419935817
0.900666419935817
0.900666419935817
0.900666419935817
0.900666419935817
0.900666419935817
0.900666419935817
0.900666419935817
0.900666419935817
0.900666419935817
0.900666419935817
0.900666419935817
0.900666419935817
0.900666419935817
0.900666419935817
0.900666419935817
0.900666419935817
0.900666419935817
0.900666419935817
0.900666419935817
0.900666419935817
0.900666419935817
0.900666419935817
0.900666419935817
0.900666419935817
0.900666419935817
0.900666419935817
0.900666419935817
0.900666419935817
0.900666419935817
0.900666419935817
0.900666419935817
0.900666419935817
0.900666419935817
0.900666419935817
0.900666419935817
0.900666419935817
0.900666419935817
0.900666419935817
0.900666419935817
0.900666419935817
0.900666419935817
0.900666419935817
0.900666419935817
0.900666419935817
0.900666419935817
0.900666419935817
0.900666419935817
0.900666419935817
0.900666419935817
0.900666419935817
0.900666419935817
0.900666419935817
0.900666419935817
0.900666419935817
0.900666419935817
0.900666419935817
0.900666419935817
0.900666419935817
0.900666419935817
0.900666419935817
0.900666419935817
0.900666419935817
0.900666419935817
0.900666419935817
0.900666419935817
0.900666419935817
0.900666419935817
0.900666419935817
0.900666419935817
0.900666419935817
0.900666419935817
0.900666419935817
0.900666419935817
0.900666419935817
0.900666419935817
0.900666419935817
0.900666419935817
0.900666419935817
0.900666419935817
0.900666419935817
0.900666419935817
0.900666419935817
0.900666419935817
0.900666419935817
0.900666419935817
0.900666419935817
0.900666419935817
0.900666419935817
0.900666419935817
0.900666419935817
0.900666419935817
0.900666419935817
0.900666419935817
0.900666419935817
0.900666419935817
0.900666419935817
0.900666419935817
0.900666419935817
0.900666419935817
0.900666419935817
0.900666419935817
0.900666419935817
0.900666419935817
0.900666419935817
0.900666419935817
0.900666419935817
0.900666419935817
0.900666419935817
0.900666419935817
0.900666419935817
0.900666419935817
0.900666419935817
0.900666419935817
0.900666419935817
0.900666419935817
0.900666419935817
0.900666419935817
0.900666419935817
0.900666419935817
0.900666419935817
0.900666419935817
0.900666419935817
0.900666419935817
0.900666419935817
0.900666419935817
0.900666419935817
0.900666419935817
0.900666419935817
0.900666419935817
0.900666419935817
0.900666419935817
0.900666419935817
0.900666419935817
0.900666419935817
0.900666419935817
0.900666419935817
0.900666419935817
0.900666419935817
0.900666419935817
0.900666419935817
0.900666419935817
0.900666419935817
0.900666419935817
0.900666419935817
0.900666419935817
0.900666419935817
0.900666419935817
0.900666419935817
0.900666419935817
0.900666419935817
0.900666419935817
0.900666419935817
0.900666419935817
0.900666419935817
0.900666419935817
0.900666419935817
0.900666419935817
0.900666419935817
0.900666419935817
0.900666419935817
0.900666419935817
0.900666419935817
0.900666419935817
0.900666419935817
0.900666419935817
0.900666419935817
0.900666419935817
0.900666419935817
0.900666419935817
0.900666419935817
0.900666419935817
0.900666419935817
0.900666419935817
0.900666419935817
0.900666419935817
0.900666419935817
0.900666419935817
0.900666419935817
0.900666419935817
0.900666419935817
0.900666419935817
0.900666419935817
0.900666419935817
0.900666419935817
0.900666419935817
0.900666419935817
0.900666419935817
0.900666419935817
0.900666419935817
0.900666419935817
0.900666419935817
0.900666419935817
0.900666419935817
0.900666419935817
0.900666419935817
0.900666419935817
0.900666419935817
0.900666419935817
0.900666419935817
0.900666419935817
0.900666419935817
0.900666419935817
0.900666419935817
0.900666419935817
0.900666419935817
0.900666419935817
0.900666419935817
0.900666419935817
0.900666419935817
0.900666419935817
0.900666419935817
0.900666419935817
0.900666419935817
0.900666419935817
0.900666419935817
0.900666419935817
0.900666419935817
0.900666419935817
0.900666419935817
0.900666419935817
0.900666419935817
0.900666419935817
0.900666419935817
0.900666419935817
0.900666419935817
0.900666419935817
0.900666419935817
0.900666419935817
0.900666419935817
0.900666419935817
0.900666419935817
0.900666419935817
0.900666419935817
0.900666419935817
0.900666419935817
0.900666419935817
0.900666419935817
0.900666419935817
0.900666419935817
0.900666419935817
0.900666419935817
0.900666419935817
0.900666419935817
0.900666419935817
0.900666419935817
0.900666419935817
0.900666419935817
0.900666419935817
0.900666419935817
0.900666419935817
0.900666419935817
0.900666419935817
0.900666419935817
0.900666419935817
0.900666419935817
0.900666419935817
0.900666419935817
0.900666419935817
0.900666419935817
0.900666419935817
0.900666419935817
0.900666419935817
0.900666419935817
0.900666419935817
0.900666419935817
0.900666419935817
0.900666419935817
0.900666419935817
0.900666419935817
0.900666419935817
0.900666419935817
0.900666419935817
0.900666419935817
0.900666419935817
0.900666419935817
0.900666419935817
0.900666419935817
0.900666419935817
0.900666419935817
0.900666419935817
0.900666419935817
0.900666419935817
0.900666419935817
0.900666419935817
0.900666419935817
0.900666419935817
0.900666419935817
0.900666419935817
0.900666419935817
0.900666419935817
0.900666419935817
0.900666419935817
0.900666419935817
0.900666419935817
0.900666419935817
0.900666419935817
0.900666419935817
0.900666419935817
0.900666419935817
0.900666419935817
0.887749964798648
0.865505632563994
0.865505632563994
0.865505632563994
0.865505632563994
0.865505632563994
0.865505632563994
0.865505632563994
0.865505632563994
0.865505632563994
0.865505632563994
0.865505632563994
0.865505632563994
0.865505632563994
0.865505632563994
0.865505632563994
0.865505632563994
0.865505632563994
0.865505632563994
0.865505632563994
0.865505632563994
0.865505632563994
0.865505632563994
0.865505632563994
0.865505632563994
0.865505632563994
0.865505632563994
0.865505632563994
0.865505632563994
0.865505632563994
0.865505632563994
0.865505632563994
0.865505632563994
0.865505632563994
0.865505632563994
0.865505632563994
0.865505632563994
0.865505632563994
0.865505632563994
0.865505632563994
0.865505632563994
0.865505632563994
0.865505632563994
0.865505632563994
0.865505632563994
0.865505632563994
0.865505632563994
0.865505632563994
0.865505632563994
0.865505632563994
0.865505632563994
0.865505632563994
0.865505632563994
0.865505632563994
0.865505632563994
0.865505632563994
0.865505632563994
0.865505632563994
0.865505632563994
0.865505632563994
0.865505632563994
0.865505632563994
0.865505632563994
0.865505632563994
0.865505632563994
0.865505632563994
0.865505632563994
0.865505632563994
0.865505632563994
0.865505632563994
0.865505632563994
0.865505632563994
0.865505632563994
0.865505632563994
0.865505632563994
0.865505632563994
0.865505632563994
0.865505632563994
0.865505632563994
0.865505632563994
0.865505632563994
0.865505632563994
0.865505632563994
0.865505632563994
0.865505632563994
0.865505632563994
0.865505632563994
0.865505632563994
0.865505632563994
0.865505632563994
0.865505632563994
0.865505632563994
0.865505632563994
0.865505632563994
0.865505632563994
0.865505632563994
0.865505632563994
0.865505632563994
0.865505632563994
0.865505632563994
0.865505632563994
0.865505632563994
0.865505632563994
0.865505632563994
0.865505632563994
0.865505632563994
0.865505632563994
0.865505632563994
0.865505632563994
0.865505632563994
0.865505632563994
0.865505632563994
0.865505632563994
0.865505632563994
0.865505632563994
0.865505632563994
0.865505632563994
0.865505632563994
0.865505632563994
0.865505632563994
0.865505632563994
0.865505632563994
0.865505632563994
0.865505632563994
0.865505632563994
0.865505632563994
0.865505632563994
0.865505632563994
0.865505632563994
0.865505632563994
0.865505632563994
0.865505632563994
0.865505632563994
0.865505632563994
0.865505632563994
0.865505632563994
0.865505632563994
0.865505632563994
0.865505632563994
0.865505632563994
0.865505632563994
0.865505632563994
0.865505632563994
0.865505632563994
0.865505632563994
0.865505632563994
0.865505632563994
0.865505632563994
0.865505632563994
0.865505632563994
0.865505632563994
0.865505632563994
0.865505632563994
0.865505632563994
0.865505632563994
0.865505632563994
0.865505632563994
0.865505632563994
0.865505632563994
0.865505632563994
0.865505632563994
0.865505632563994
0.865505632563994
0.865505632563994
0.865505632563994
0.865505632563994
0.865505632563994
0.865505632563994
0.865505632563994
0.865505632563994
0.865505632563994
0.865505632563994
0.865505632563994
0.865505632563994
0.865505632563994
0.865505632563994
0.865505632563994
0.865505632563994
0.865505632563994
0.865505632563994
0.865505632563994
0.865505632563994
0.865505632563994
0.865505632563994
0.865505632563994
0.865505632563994
0.865505632563994
0.865505632563994
0.865505632563994
0.865505632563994
0.865505632563994
0.865505632563994
0.865505632563994
0.865505632563994
0.865505632563994
0.865505632563994
0.865505632563994
0.865505632563994
0.865505632563994
0.865505632563994
0.865505632563994
0.865505632563994
0.865505632563994
0.865505632563994
0.865505632563994
0.865505632563994
0.865505632563994
0.865505632563994
0.865505632563994
0.865505632563994
0.865505632563994
0.865505632563994
0.865505632563994
0.865505632563994
0.865505632563994
0.865505632563994
0.865505632563994
0.865505632563994
0.865505632563994
0.865505632563994
0.865505632563994
0.865505632563994
0.865505632563994
0.865505632563994
0.865505632563994
0.865505632563994
0.865505632563994
0.865505632563994
0.865505632563994
0.865505632563994
0.865505632563994
0.865505632563994
0.865505632563994
0.865505632563994
0.865505632563994
0.865505632563994
0.865505632563994
0.865505632563994
0.865505632563994
0.865505632563994
0.865505632563994
0.865505632563994
0.865505632563994
0.865505632563994
0.865505632563994
0.865505632563994
0.865505632563994
0.865505632563994
0.865505632563994
0.865505632563994
0.865505632563994
0.865505632563994
0.865505632563994
0.865505632563994
0.865505632563994
0.865505632563994
0.865505632563994
0.865505632563994
0.865505632563994
0.865505632563994
0.865505632563994
0.865505632563994
0.865505632563994
0.865505632563994
0.865505632563994
0.865505632563994
0.865505632563994
0.865505632563994
0.865505632563994
0.865505632563994
0.865505632563994
0.865505632563994
0.865505632563994
0.865505632563994
0.865505632563994
0.865505632563994
0.865505632563994
0.865505632563994
0.865505632563994
0.865505632563994
0.865505632563994
0.865505632563994
0.865505632563994
0.865505632563994
0.865505632563994
0.865505632563994
0.865505632563994
0.865505632563994
0.865505632563994
0.865505632563994
0.865505632563994
0.865505632563994
0.865505632563994
0.865505632563994
0.865505632563994
0.865505632563994
0.865505632563994
0.865505632563994
0.865505632563994
0.865505632563994
0.865505632563994
0.865505632563994
0.865505632563994
0.865505632563994
0.865505632563994
0.865505632563994
0.865505632563994
0.865505632563994
0.865505632563994
0.865505632563994
0.865505632563994
0.865505632563994
0.865505632563994
0.865505632563994
0.865505632563994
0.865505632563994
0.865505632563994
0.865505632563994
0.865505632563994
0.865505632563994
0.865505632563994
0.865505632563994
0.865505632563994
0.865505632563994
0.865505632563994
0.865505632563994
0.865505632563994
0.865505632563994
0.865505632563994
0.865505632563994
0.865505632563994
0.865505632563994
0.865505632563994
0.865505632563994
0.865505632563994
0.865505632563994
0.865505632563994
0.865505632563994
0.865505632563994
0.865505632563994
0.865505632563994
0.865505632563994
0.865505632563994
0.865505632563994
0.865505632563994
0.865505632563994
0.865505632563994
0.865505632563994
0.865505632563994
0.865505632563994
0.865505632563994
0.865505632563994
0.865505632563994
0.865505632563994
0.865505632563994
0.865505632563994
0.865505632563994
0.865505632563994
0.865505632563994
0.865505632563994
0.865505632563994
0.865505632563994
0.865505632563994
0.865505632563994
0.865505632563994
0.865505632563994
0.865505632563994
0.865505632563994
0.865505632563994
0.865505632563994
0.865505632563994
0.865505632563994
0.865505632563994
0.865505632563994
0.865505632563994
0.865505632563994
0.865505632563994
0.865505632563994
0.865505632563994
0.865505632563994
0.865505632563994
0.865505632563994
0.865505632563994
0.865505632563994
0.865505632563994
0.865505632563994
0.865505632563994
0.865505632563994
0.865505632563994
0.865505632563994
0.865505632563994
0.865505632563994
0.865505632563994
0.865505632563994
0.865505632563994
0.865505632563994
0.865505632563994
0.865505632563994
0.865505632563994
0.865505632563994
0.865505632563994
0.865505632563994
0.865505632563994
0.865505632563994
0.865505632563994
0.865505632563994
0.865505632563994
0.865505632563994
0.865505632563994
0.865505632563994
0.865505632563994
0.865505632563994
0.865505632563994
0.865505632563994
0.865505632563994
0.865505632563994
0.865505632563994
0.865505632563994
0.865505632563994
0.865505632563994
0.865505632563994
0.865505632563994
0.865505632563994
0.865505632563994
0.865505632563994
0.865505632563994
0.865505632563994
0.865505632563994
0.865505632563994
0.865505632563994
0.865505632563994
0.865505632563994
0.865505632563994
0.865505632563994
0.865505632563994
0.865505632563994
0.865505632563994
0.865505632563994
0.865505632563994
0.865505632563994
0.865505632563994
0.865505632563994
0.865505632563994
0.865505632563994
0.865505632563994
0.865505632563994
0.865505632563994
0.865505632563994
0.865505632563994
0.865505632563994
0.865505632563994
0.865505632563994
0.865505632563994
0.865505632563994
0.865505632563994
0.865505632563994
0.865505632563994
0.865505632563994
0.865505632563994
0.865505632563994
0.865505632563994
0.865505632563994
0.865505632563994
0.865505632563994
0.865505632563994
0.865505632563994
0.865505632563994
0.865505632563994
0.865505632563994
0.865505632563994
0.865505632563994
0.865505632563994
0.865505632563994
0.865505632563994
0.865505632563994
0.865505632563994
0.865505632563994
0.865505632563994
0.865505632563994
0.865505632563994
0.865505632563994
0.865505632563994
0.865505632563994
0.865505632563994
0.865505632563994
0.865505632563994
0.865505632563994
0.865505632563994
0.865505632563994
0.865505632563994
0.865505632563994
0.865505632563994
0.865505632563994
0.865505632563994
0.865505632563994
0.865505632563994
0.865505632563994
0.865505632563994
0.865505632563994
0.865505632563994
0.865505632563994
0.865505632563994
0.865505632563994
0.865505632563994
0.865505632563994
0.865505632563994
0.865505632563994
0.865505632563994
0.865505632563994
0.865505632563994
0.865505632563994
0.865505632563994
0.865505632563994
0.865505632563994
0.865505632563994
0.865505632563994
0.865505632563994
0.865505632563994
0.865505632563994
0.865505632563994
0.865505632563994
0.865505632563994
0.865505632563994
0.865505632563994
0.865505632563994
0.865505632563994
0.865505632563994
0.865505632563994
0.865505632563994
0.865505632563994
0.865505632563994
0.865505632563994
0.865505632563994
0.865505632563994
0.865505632563994
0.865505632563994
0.865505632563994
0.865505632563994
0.865505632563994
0.865505632563994
0.865505632563994
0.865505632563994
0.865505632563994
0.865505632563994
0.865505632563994
0.865505632563994
0.865505632563994
0.865505632563994
0.865505632563994
0.865505632563994
0.865505632563994
0.865505632563994
0.865505632563994
0.865505632563994
0.865505632563994
0.865505632563994
0.865505632563994
0.865505632563994
0.865505632563994
0.865505632563994
0.865505632563994
0.865505632563994
0.865505632563994
0.865505632563994
0.865505632563994
0.865505632563994
0.865505632563994
0.865505632563994
0.865505632563994
0.865505632563994
0.865505632563994
0.865505632563994
0.865505632563994
0.865505632563994
0.865505632563994
0.865505632563994
0.865505632563994
0.865505632563994
0.865505632563994
0.865505632563994
0.865505632563994
0.865505632563994
0.865505632563994
0.865505632563994
0.865505632563994
0.865505632563994
0.865505632563994
0.865505632563994
0.865505632563994
0.865505632563994
0.865505632563994
0.865505632563994
0.865505632563994
0.865505632563994
0.865505632563994
0.865505632563994
0.865505632563994
0.865505632563994
0.865505632563994
0.865505632563994
0.865505632563994
0.865505632563994
0.865505632563994
0.865505632563994
0.865505632563994
0.865505632563994
0.865505632563994
0.865505632563994
0.865505632563994
0.865505632563994
0.865505632563994
0.865505632563994
0.865505632563994
0.865505632563994
0.865505632563994
0.865505632563994
0.865505632563994
0.865505632563994
0.865505632563994
0.865505632563994
0.865505632563994
0.865505632563994
0.865505632563994
0.865505632563994
0.865505632563994
0.865505632563994
0.865505632563994
0.865505632563994
0.865505632563994
0.865505632563994
0.865505632563994
0.865505632563994
0.865505632563994
0.865505632563994
0.865505632563994
0.865505632563994
0.865505632563994
0.865505632563994
0.865505632563994
0.865505632563994
0.865505632563994
0.865505632563994
0.865505632563994
0.865505632563994
0.865505632563994
0.865505632563994
0.865505632563994
0.865505632563994
0.865505632563994
0.865505632563994
0.865505632563994
0.865505632563994
0.865505632563994
0.865505632563994
0.865505632563994
0.865505632563994
0.865505632563994
0.865505632563994
0.865505632563994
0.865505632563994
0.865505632563994
0.865505632563994
0.865505632563994
0.865505632563994
0.865505632563994
0.865505632563994
0.865505632563994
0.865505632563994
0.865505632563994
0.865505632563994
0.865505632563994
0.865505632563994
0.865505632563994
0.865505632563994
0.865505632563994
0.865505632563994
0.865505632563994
0.865505632563994
0.865505632563994
0.865505632563994
0.865505632563994
0.865505632563994
0.865505632563994
0.865505632563994
0.865505632563994
0.865505632563994
0.865505632563994
0.865505632563994
0.865505632563994
0.865505632563994
0.865505632563994
0.865505632563994
0.865505632563994
0.865505632563994
0.865505632563994
0.865505632563994
0.865505632563994
0.865505632563994
0.865505632563994
0.865505632563994
0.865505632563994
0.865505632563994
0.865505632563994
0.865505632563994
0.865505632563994
0.865505632563994
0.865505632563994
0.865505632563994
0.865505632563994
0.865505632563994
0.865505632563994
0.865505632563994
0.865505632563994
0.865505632563994
0.865505632563994
0.865505632563994
0.865505632563994
0.865505632563994
0.865505632563994
0.865505632563994
0.865505632563994
0.865505632563994
0.865505632563994
0.865505632563994
0.8682741502544
0.870114934936759
0.870287308881383
0.870287308881383
0.870287308881383
0.870287308881383
0.870287308881383
0.870287308881383
0.870287308881383
0.870287308881383
0.870287308881383
0.870287308881383
0.870287308881383
0.870287308881383
0.870287308881383
0.870287308881383
0.870287308881383
0.870287308881383
0.870287308881383
0.870287308881383
0.870287308881383
0.870287308881383
0.870287308881383
0.870287308881383
0.870287308881383
0.870287308881383
0.870287308881383
0.870287308881383
0.870287308881383
0.870287308881383
0.870287308881383
0.870287308881383
0.870287308881383
0.870287308881383
0.870287308881383
0.870287308881383
0.870287308881383
0.870287308881383
0.870287308881383
0.870287308881383
0.870287308881383
0.870287308881383
0.870287308881383
0.870287308881383
0.870287308881383
0.870287308881383
0.870287308881383
0.870287308881383
0.870287308881383
0.870287308881383
0.870287308881383
0.870287308881383
0.870287308881383
0.870287308881383
0.870287308881383
0.870287308881383
0.870287308881383
0.870287308881383
0.870287308881383
0.870287308881383
0.870287308881383
0.870287308881383
0.870287308881383
0.870287308881383
0.870287308881383
0.870287308881383
0.870287308881383
0.870287308881383
0.870287308881383
0.870287308881383
0.870287308881383
0.870287308881383
0.870287308881383
0.870287308881383
0.870287308881383
0.870287308881383
0.870287308881383
0.870287308881383
0.870287308881383
0.870287308881383
0.870287308881383
0.870287308881383
0.870287308881383
0.870287308881383
0.870287308881383
0.870287308881383
0.870287308881383
0.870287308881383
0.870287308881383
0.870287308881383
0.870287308881383
0.870287308881383
0.870287308881383
0.870287308881383
0.870287308881383
0.870287308881383
0.870287308881383
0.870287308881383
0.870287308881383
0.870287308881383
0.870287308881383
0.870287308881383
0.870287308881383
0.870287308881383
0.870287308881383
0.870287308881383
0.870287308881383
0.870287308881383
0.870287308881383
0.870287308881383
0.870287308881383
0.870287308881383
0.870287308881383
0.870287308881383
0.870287308881383
0.870287308881383
0.870287308881383
0.870287308881383
0.870287308881383
0.870287308881383
0.870287308881383
0.870287308881383
0.870287308881383
0.870287308881383
0.870287308881383
0.870287308881383
0.870287308881383
0.870287308881383
0.870287308881383
0.870287308881383
0.870287308881383
0.870287308881383
0.870287308881383
0.870287308881383
0.870287308881383
0.870287308881383
0.870287308881383
0.870287308881383
0.870287308881383
0.870287308881383
0.870287308881383
0.870287308881383
0.870287308881383
0.870287308881383
0.870287308881383
0.870287308881383
0.870287308881383
0.870287308881383
0.870287308881383
0.870287308881383
0.870287308881383
0.870287308881383
0.870287308881383
0.870287308881383
0.870287308881383
0.870287308881383
0.870287308881383
0.870287308881383
0.870287308881383
0.870287308881383
0.870287308881383
0.870287308881383
0.870287308881383
0.870287308881383
0.870287308881383
0.870287308881383
0.870287308881383
0.870287308881383
0.870287308881383
0.870287308881383
0.870287308881383
0.870287308881383
0.870287308881383
0.870287308881383
0.870287308881383
0.870287308881383
0.870287308881383
0.870287308881383
0.870287308881383
0.870287308881383
0.870287308881383
0.870287308881383
0.870287308881383
0.870287308881383
0.870287308881383
0.870287308881383
0.870287308881383
0.870287308881383
0.870287308881383
0.870287308881383
0.870287308881383
0.870287308881383
0.870287308881383
0.870287308881383
0.870287308881383
0.870287308881383
0.870287308881383
0.870287308881383
0.870287308881383
0.870287308881383
0.870287308881383
0.870287308881383
0.870287308881383
0.870287308881383
0.870287308881383
0.870287308881383
0.870287308881383
0.870287308881383
0.870287308881383
0.870287308881383
0.870287308881383
0.870287308881383
0.870287308881383
0.870287308881383
0.870287308881383
0.870287308881383
0.870287308881383
0.870287308881383
0.870287308881383
0.870287308881383
0.870287308881383
0.870287308881383
0.870287308881383
0.870287308881383
0.870287308881383
0.870287308881383
0.870287308881383
0.870287308881383
0.870287308881383
0.870287308881383
0.870287308881383
0.870287308881383
0.870287308881383
0.870287308881383
0.870287308881383
0.870287308881383
0.870287308881383
0.870287308881383
0.870287308881383
0.870287308881383
0.870287308881383
0.870287308881383
0.870287308881383
0.870287308881383
0.870287308881383
0.870287308881383
0.870287308881383
0.870287308881383
0.870287308881383
0.870287308881383
0.870287308881383
0.870287308881383
0.870287308881383
0.870287308881383
0.870287308881383
0.870287308881383
0.870287308881383
0.870287308881383
0.870287308881383
0.870287308881383
0.870287308881383
0.870287308881383
0.870287308881383
0.870287308881383
0.870287308881383
0.870287308881383
0.870287308881383
0.870287308881383
0.870287308881383
0.870287308881383
0.870287308881383
0.870287308881383
0.870287308881383
0.870287308881383
0.870287308881383
0.870287308881383
0.870287308881383
0.870287308881383
0.870287308881383
0.870287308881383
0.870287308881383
