DataType:ECG
5.00E+00
5.00E+00
5.00E+00
5.00E+00
5.00E+00
5.00E+00
5.00E+00
5.00E+00
4.99E+00
5.00E+00
5.00E+00
5.00E+00
5.03E+00
5.04E+00
5.02E+00
4.95E+00
4.90E+00
4.87E+00
4.84E+00
4.83E+00
4.78E+00
4.73E+00
4.71E+00
4.72E+00
4.74E+00
4.75E+00
4.73E+00
4.71E+00
4.70E+00
4.70E+00
4.72E+00
4.75E+00
4.75E+00
4.73E+00
4.71E+00
4.72E+00
4.73E+00
4.75E+00
4.73E+00
4.73E+00
4.73E+00
4.73E+00
4.74E+00
4.74E+00
4.74E+00
4.72E+00
4.72E+00
4.72E+00
4.72E+00
4.71E+00
4.69E+00
4.70E+00
4.70E+00
4.73E+00
4.75E+00
4.76E+00
4.75E+00
4.76E+00
4.74E+00
4.72E+00
4.72E+00
4.73E+00
4.76E+00
4.79E+00
4.80E+00
4.83E+00
4.85E+00
4.84E+00
4.78E+00
4.68E+00
4.61E+00
4.60E+00
4.61E+00
4.61E+00
4.59E+00
4.58E+00
4.54E+00
4.50E+00
4.48E+00
4.47E+00
4.44E+00
4.39E+00
4.34E+00
4.29E+00
4.24E+00
4.21E+00
4.18E+00
4.15E+00
4.14E+00
4.18E+00
4.21E+00
4.23E+00
4.23E+00
4.29E+00
4.36E+00
4.42E+00
4.50E+00
4.54E+00
4.58E+00
4.62E+00
4.64E+00
4.68E+00
4.73E+00
4.75E+00
4.75E+00
4.76E+00
4.76E+00
4.77E+00
4.80E+00
4.81E+00
4.80E+00
4.78E+00
4.78E+00
4.79E+00
4.82E+00
4.84E+00
4.82E+00
4.83E+00
4.83E+00
4.82E+00
4.83E+00
4.84E+00
4.84E+00
4.80E+00
4.80E+00
4.81E+00
4.83E+00
4.84E+00
4.85E+00
4.84E+00
4.83E+00
4.83E+00
4.84E+00
4.84E+00
4.83E+00
4.84E+00
4.85E+00
4.84E+00
4.85E+00
4.86E+00
4.85E+00
4.85E+00
4.85E+00
4.86E+00
4.88E+00
4.90E+00
4.88E+00
4.86E+00
4.84E+00
4.85E+00
4.88E+00
4.90E+00
4.90E+00
4.90E+00
4.88E+00
4.90E+00
4.92E+00
4.93E+00
4.94E+00
4.90E+00
4.88E+00
4.90E+00
4.93E+00
4.94E+00
4.96E+00
4.94E+00
4.93E+00
4.94E+00
4.94E+00
4.96E+00
4.95E+00
4.97E+00
4.96E+00
4.95E+00
4.95E+00
4.98E+00
4.95E+00
4.96E+00
4.96E+00
4.96E+00
4.96E+00
4.97E+00
4.96E+00
4.95E+00
4.93E+00
4.93E+00
4.93E+00
4.94E+00
4.94E+00
4.92E+00
4.92E+00
4.92E+00
4.92E+00
4.93E+00
4.93E+00
4.92E+00
4.89E+00
4.90E+00
4.91E+00
4.91E+00
4.92E+00
4.91E+00
4.89E+00
4.86E+00
4.87E+00
4.87E+00
4.88E+00
4.88E+00
4.87E+00
4.86E+00
4.85E+00
4.87E+00
4.86E+00
4.86E+00
4.85E+00
4.84E+00
4.86E+00
4.87E+00
4.86E+00
4.85E+00
4.85E+00
4.85E+00
4.87E+00
4.87E+00
4.86E+00
4.85E+00
4.85E+00
4.85E+00
4.86E+00
4.87E+00
4.86E+00
4.84E+00
4.84E+00
4.84E+00
4.84E+00
4.86E+00
4.86E+00
4.85E+00
4.84E+00
4.84E+00
4.84E+00
4.86E+00
4.87E+00
4.85E+00
4.85E+00
4.84E+00
4.85E+00
4.85E+00
4.83E+00
4.82E+00
4.80E+00
4.82E+00
4.83E+00
4.85E+00
4.84E+00
4.81E+00
4.80E+00
4.81E+00
4.81E+00
4.82E+00
4.81E+00
4.79E+00
4.78E+00
4.76E+00
4.77E+00
4.79E+00
4.78E+00
4.78E+00
4.75E+00
4.76E+00
4.77E+00
4.78E+00
4.76E+00
4.76E+00
4.75E+00
4.75E+00
4.77E+00
4.77E+00
4.77E+00
4.76E+00
4.75E+00
4.75E+00
4.75E+00
4.77E+00
4.76E+00
4.76E+00
4.74E+00
4.75E+00
4.77E+00
4.78E+00
4.78E+00
4.78E+00
4.77E+00
4.76E+00
4.78E+00
4.79E+00
4.78E+00
4.78E+00
4.78E+00
4.78E+00
4.79E+00
4.79E+00
4.80E+00
4.79E+00
4.79E+00
4.79E+00
4.81E+00
4.83E+00
4.82E+00
4.80E+00
4.79E+00
4.78E+00
4.80E+00
4.81E+00
4.81E+00
4.81E+00
4.78E+00
4.79E+00
4.81E+00
4.83E+00
4.81E+00
4.79E+00
4.79E+00
4.78E+00
4.80E+00
4.82E+00
4.82E+00
4.82E+00
4.82E+00
4.81E+00
4.82E+00
4.83E+00
4.82E+00
4.80E+00
4.80E+00
4.80E+00
4.82E+00
4.82E+00
4.81E+00
4.81E+00
4.81E+00
4.82E+00
4.82E+00
4.84E+00
4.86E+00
4.85E+00
4.84E+00
4.86E+00
4.87E+00
4.89E+00
4.90E+00
4.90E+00
4.89E+00
4.92E+00
4.94E+00
4.97E+00
4.98E+00
4.97E+00
4.97E+00
5.00E+00
5.02E+00
5.03E+00
5.04E+00
5.03E+00
5.03E+00
5.03E+00
5.05E+00
5.07E+00
5.07E+00
5.06E+00
5.01E+00
4.99E+00
4.96E+00
4.94E+00
4.90E+00
4.85E+00
4.80E+00
4.77E+00
4.75E+00
4.77E+00
4.77E+00
4.77E+00
4.76E+00
4.76E+00
4.76E+00
4.78E+00
4.78E+00
4.77E+00
4.75E+00
4.74E+00
4.73E+00
4.76E+00
4.78E+00
4.80E+00
4.78E+00
4.76E+00
4.77E+00
4.78E+00
4.78E+00
4.77E+00
4.77E+00
4.77E+00
4.78E+00
4.77E+00
4.77E+00
4.75E+00
4.75E+00
4.76E+00
4.78E+00
4.79E+00
4.79E+00
4.77E+00
4.76E+00
4.75E+00
4.75E+00
4.74E+00
4.73E+00
4.75E+00
4.78E+00
4.81E+00
4.85E+00
4.87E+00
4.86E+00
4.78E+00
4.70E+00
4.63E+00
4.61E+00
4.63E+00
4.64E+00
4.63E+00
4.59E+00
4.55E+00
4.52E+00
4.49E+00
4.47E+00
4.44E+00
4.40E+00
4.34E+00
4.28E+00
4.22E+00
4.21E+00
4.19E+00
4.19E+00
4.21E+00
4.24E+00
4.27E+00
4.30E+00
4.37E+00
4.44E+00
4.51E+00
4.57E+00
4.61E+00
4.64E+00
4.68E+00
4.73E+00
4.77E+00
4.81E+00
4.82E+00
4.82E+00
4.82E+00
4.82E+00
4.83E+00
4.85E+00
4.86E+00
4.85E+00
4.83E+00
4.82E+00
4.85E+00
4.87E+00
4.88E+00
4.86E+00
4.84E+00
4.85E+00
4.86E+00
4.88E+00
4.88E+00
4.87E+00
4.88E+00
4.86E+00
4.86E+00
4.85E+00
4.88E+00
4.89E+00
4.90E+00
4.90E+00
4.90E+00
4.90E+00
4.90E+00
4.90E+00
4.88E+00
4.88E+00
4.88E+00
4.89E+00
4.92E+00
4.93E+00
4.92E+00
4.91E+00
4.89E+00
4.91E+00
4.94E+00
4.94E+00
4.94E+00
4.93E+00
4.92E+00
4.93E+00
4.95E+00
4.97E+00
4.97E+00
4.95E+00
4.95E+00
4.98E+00
4.98E+00
4.97E+00
4.96E+00
4.97E+00
4.98E+00
4.99E+00
5.01E+00
5.00E+00
5.01E+00
5.01E+00
5.01E+00
5.01E+00
5.03E+00
5.01E+00
5.01E+00
4.99E+00
5.00E+00
5.02E+00
5.02E+00
5.01E+00
5.01E+00
5.00E+00
5.02E+00
5.04E+00
5.03E+00
5.02E+00
5.01E+00
4.99E+00
5.00E+00
5.02E+00
5.02E+00
5.01E+00
4.99E+00
4.98E+00
4.97E+00
4.96E+00
4.98E+00
4.98E+00
4.98E+00
4.96E+00
4.93E+00
4.93E+00
4.95E+00
4.96E+00
4.94E+00
4.93E+00
4.92E+00
4.92E+00
4.95E+00
4.93E+00
4.92E+00
4.91E+00
4.91E+00
4.91E+00
4.92E+00
4.92E+00
4.91E+00
4.90E+00
4.91E+00
4.92E+00
4.93E+00
4.91E+00
4.90E+00
4.88E+00
4.88E+00
4.88E+00
4.88E+00
4.88E+00
4.89E+00
4.90E+00
4.90E+00
4.90E+00
4.89E+00
4.89E+00
4.86E+00
4.86E+00
4.87E+00
4.89E+00
4.90E+00
4.89E+00
4.87E+00
4.84E+00
4.84E+00
4.86E+00
4.87E+00
4.86E+00
4.85E+00
4.85E+00
4.84E+00
4.86E+00
4.86E+00
4.85E+00
4.82E+00
4.82E+00
4.82E+00
4.81E+00
4.83E+00
4.85E+00
4.82E+00
4.80E+00
4.81E+00
4.82E+00
4.84E+00
4.84E+00
4.83E+00
4.81E+00
4.80E+00
4.80E+00
4.81E+00
4.80E+00
4.81E+00
4.78E+00
4.79E+00
4.81E+00
4.81E+00
4.80E+00
4.79E+00
4.78E+00
4.78E+00
4.79E+00
4.81E+00
4.80E+00
4.80E+00
4.78E+00
4.78E+00
4.78E+00
4.79E+00
4.79E+00
4.81E+00
4.81E+00
4.82E+00
4.81E+00
4.81E+00
4.82E+00
4.81E+00
4.80E+00
4.82E+00
4.82E+00
4.82E+00
4.82E+00
4.82E+00
4.80E+00
4.80E+00
4.81E+00
4.81E+00
4.82E+00
4.83E+00
4.83E+00
4.82E+00
4.83E+00
4.82E+00
4.83E+00
4.82E+00
4.82E+00
4.84E+00
4.85E+00
4.83E+00
4.84E+00
4.84E+00
4.81E+00
4.82E+00
4.83E+00
4.84E+00
4.83E+00
4.82E+00
4.83E+00
4.84E+00
4.86E+00
4.85E+00
4.84E+00
4.83E+00
4.83E+00
4.82E+00
4.84E+00
4.85E+00
4.85E+00
4.85E+00
4.84E+00
4.83E+00
4.84E+00
4.85E+00
4.85E+00
4.85E+00
4.85E+00
4.86E+00
4.90E+00
4.92E+00
4.92E+00
4.92E+00
4.91E+00
4.92E+00
4.92E+00
4.95E+00
4.97E+00
5.00E+00
5.01E+00
5.03E+00
5.04E+00
5.06E+00
5.06E+00
5.04E+00
5.04E+00
5.08E+00
5.13E+00
5.13E+00
5.13E+00
5.11E+00
5.08E+00
5.04E+00
5.00E+00
4.99E+00
4.95E+00
4.91E+00
4.86E+00
4.82E+00
4.81E+00
4.81E+00
4.81E+00
4.82E+00
4.80E+00
4.81E+00
4.82E+00
4.83E+00
4.82E+00
4.81E+00
4.80E+00
4.81E+00
4.81E+00
4.82E+00
4.81E+00
4.81E+00
4.81E+00
4.80E+00
4.81E+00
4.82E+00
4.84E+00
4.84E+00
4.81E+00
4.80E+00
4.80E+00
4.81E+00
4.78E+00
4.78E+00
4.77E+00
4.78E+00
4.78E+00
4.80E+00
4.81E+00
4.81E+00
4.78E+00
4.78E+00
4.80E+00
4.81E+00
4.80E+00
4.77E+00
4.78E+00
4.80E+00
4.84E+00
4.85E+00
4.86E+00
4.84E+00
4.77E+00
4.70E+00
4.66E+00
4.65E+00
4.63E+00
4.61E+00
4.59E+00
4.56E+00
4.52E+00
4.50E+00
4.47E+00
4.44E+00
4.42E+00
4.36E+00
4.30E+00
4.26E+00
4.22E+00
4.21E+00
4.20E+00
4.23E+00
4.28E+00
4.31E+00
4.33E+00
4.38E+00
4.45E+00
4.54E+00
4.61E+00
4.65E+00
4.66E+00
4.70E+00
4.73E+00
4.78E+00
4.81E+00
4.83E+00
4.83E+00
4.84E+00
4.84E+00
4.84E+00
4.85E+00
4.86E+00
4.87E+00
4.86E+00
4.86E+00
4.86E+00
4.86E+00
4.86E+00
4.86E+00
4.85E+00
4.84E+00
4.86E+00
4.91E+00
4.93E+00
4.91E+00
4.89E+00
4.87E+00
4.87E+00
4.89E+00
4.89E+00
4.89E+00
4.88E+00
4.89E+00
4.91E+00
4.90E+00
4.90E+00
4.90E+00
4.90E+00
4.89E+00
4.90E+00
4.92E+00
4.93E+00
4.92E+00
4.91E+00
4.89E+00
4.90E+00
4.94E+00
4.95E+00
4.96E+00
4.94E+00
4.92E+00
4.92E+00
4.95E+00
4.99E+00
5.01E+00
4.98E+00
4.95E+00
4.94E+00
4.97E+00
4.99E+00
5.00E+00
4.98E+00
4.97E+00
4.98E+00
4.98E+00
5.00E+00
5.03E+00
5.02E+00
5.00E+00
5.02E+00
5.01E+00
5.01E+00
5.01E+00
5.01E+00
5.00E+00
5.02E+00
5.03E+00
5.03E+00
5.04E+00
5.02E+00
4.99E+00
4.97E+00
4.98E+00
5.01E+00
5.05E+00
5.06E+00
5.02E+00
4.99E+00
4.98E+00
5.01E+00
5.03E+00
5.02E+00
5.00E+00
4.99E+00
4.98E+00
4.99E+00
4.97E+00
4.94E+00
4.94E+00
4.93E+00
4.94E+00
4.95E+00
4.95E+00
4.92E+00
4.91E+00
4.91E+00
4.91E+00
4.91E+00
4.90E+00
4.89E+00
4.88E+00
4.87E+00
4.89E+00
4.90E+00
4.90E+00
4.89E+00
4.86E+00
4.87E+00
4.87E+00
4.88E+00
4.88E+00
4.87E+00
4.85E+00
4.85E+00
4.86E+00
4.87E+00
4.86E+00
4.85E+00
4.82E+00
4.85E+00
4.86E+00
4.86E+00
4.86E+00
4.85E+00
4.83E+00
4.83E+00
4.84E+00
4.85E+00
4.85E+00
4.83E+00
4.81E+00
4.80E+00
4.81E+00
4.83E+00
4.83E+00
4.83E+00
4.82E+00
4.81E+00
4.81E+00
4.82E+00
4.83E+00
4.81E+00
4.79E+00
4.78E+00
4.78E+00
4.79E+00
4.79E+00
4.79E+00
4.78E+00
4.77E+00
4.78E+00
4.79E+00
4.79E+00
4.78E+00
4.75E+00
4.76E+00
4.77E+00
4.78E+00
4.78E+00
4.75E+00
4.75E+00
4.76E+00
4.76E+00
4.78E+00
4.77E+00
4.75E+00
4.75E+00
4.75E+00
4.77E+00
4.78E+00
4.78E+00
4.77E+00
4.76E+00
4.75E+00
4.76E+00
4.77E+00
4.76E+00
4.75E+00
4.75E+00
4.76E+00
4.78E+00
4.81E+00
4.79E+00
4.77E+00
4.76E+00
4.77E+00
4.77E+00
4.79E+00
4.78E+00
4.77E+00
4.77E+00
4.79E+00
4.78E+00
4.79E+00
4.77E+00
4.77E+00
4.77E+00
4.80E+00
4.81E+00
4.80E+00
4.78E+00
4.76E+00
4.76E+00
4.78E+00
4.80E+00
4.80E+00
4.79E+00
4.78E+00
4.77E+00
4.79E+00
4.80E+00
4.80E+00
4.79E+00
4.80E+00
4.79E+00
4.80E+00
4.80E+00
4.79E+00
4.78E+00
4.78E+00
4.80E+00
4.81E+00
4.81E+00
4.81E+00
4.81E+00
4.80E+00
4.80E+00
4.82E+00
4.82E+00
4.82E+00
4.79E+00
4.79E+00
4.79E+00
4.82E+00
4.83E+00
4.82E+00
4.81E+00
4.79E+00
4.80E+00
4.82E+00
4.83E+00
4.83E+00
4.82E+00
4.80E+00
4.82E+00
4.84E+00
4.84E+00
4.85E+00
4.86E+00
4.87E+00
4.89E+00
4.90E+00
4.91E+00
4.93E+00
4.93E+00
4.94E+00
4.96E+00
4.99E+00
5.01E+00
5.03E+00
5.03E+00
5.02E+00
5.01E+00
5.01E+00
5.03E+00
5.05E+00
5.05E+00
5.05E+00
5.07E+00
5.08E+00
5.06E+00
5.01E+00
4.96E+00
4.90E+00
4.88E+00
4.84E+00
4.82E+00
4.77E+00
4.76E+00
4.75E+00
4.77E+00
4.77E+00
4.78E+00
4.78E+00
4.76E+00
4.76E+00
4.77E+00
4.78E+00
4.79E+00
4.77E+00
4.76E+00
4.74E+00
4.75E+00
4.77E+00
4.79E+00
4.78E+00
4.77E+00
4.77E+00
4.77E+00
4.77E+00
4.78E+00
4.78E+00
4.77E+00
4.76E+00
4.77E+00
4.77E+00
4.79E+00
4.79E+00
4.77E+00
4.76E+00
4.77E+00
4.77E+00
4.77E+00
4.78E+00
4.78E+00
4.78E+00
4.77E+00
4.76E+00
4.75E+00
4.74E+00
4.78E+00
4.80E+00
4.84E+00
4.88E+00
4.90E+00
4.88E+00
4.80E+00
4.68E+00
4.61E+00
4.61E+00
4.61E+00
4.62E+00
4.62E+00
4.57E+00
4.52E+00
4.49E+00
4.47E+00
4.45E+00
4.42E+00
4.38E+00
4.34E+00
4.28E+00
4.25E+00
4.22E+00
4.19E+00
4.18E+00
4.21E+00
4.25E+00
4.28E+00
4.30E+00
4.36E+00
4.43E+00
4.51E+00
4.57E+00
4.61E+00
4.65E+00
4.68E+00
4.74E+00
4.75E+00
4.79E+00
4.82E+00
4.84E+00
4.84E+00
4.83E+00
4.82E+00
4.83E+00
4.84E+00
4.83E+00
4.83E+00
4.83E+00
4.84E+00
4.85E+00
4.85E+00
4.84E+00
4.84E+00
4.82E+00
4.82E+00
4.85E+00
4.87E+00
4.86E+00
4.86E+00
4.84E+00
4.85E+00
4.85E+00
4.87E+00
4.85E+00
4.86E+00
4.84E+00
4.85E+00
4.85E+00
4.87E+00
4.88E+00
4.89E+00
4.86E+00
4.86E+00
4.88E+00
4.88E+00
4.88E+00
4.88E+00
4.88E+00
4.89E+00
4.92E+00
4.94E+00
4.92E+00
4.92E+00
4.90E+00
4.91E+00
4.92E+00
4.92E+00
4.92E+00
4.93E+00
4.93E+00
4.94E+00
4.94E+00
4.94E+00
4.95E+00
4.95E+00
4.93E+00
4.93E+00
4.96E+00
4.97E+00
4.99E+00
4.96E+00
4.95E+00
4.96E+00
4.97E+00
4.99E+00
4.99E+00
4.97E+00
4.97E+00
4.96E+00
4.97E+00
4.96E+00
4.96E+00
4.97E+00
4.98E+00
4.97E+00
4.97E+00
4.98E+00
4.97E+00
4.97E+00
4.95E+00
4.94E+00
4.95E+00
4.95E+00
4.94E+00
4.92E+00
4.91E+00
4.91E+00
4.91E+00
4.92E+00
4.91E+00
4.91E+00
4.89E+00
4.88E+00
4.88E+00
4.87E+00
4.87E+00
4.87E+00
4.86E+00
4.86E+00
4.87E+00
4.87E+00
4.88E+00
4.88E+00
4.87E+00
4.86E+00
4.85E+00
4.87E+00
4.87E+00
4.87E+00
4.87E+00
4.87E+00
4.86E+00
4.88E+00
4.87E+00
4.87E+00
4.85E+00
4.86E+00
4.86E+00
4.87E+00
4.87E+00
4.85E+00
4.85E+00
4.85E+00
4.84E+00
4.86E+00
4.86E+00
4.84E+00
4.84E+00
4.83E+00
4.85E+00
4.86E+00
4.85E+00
4.82E+00
4.83E+00
4.85E+00
4.85E+00
4.85E+00
4.85E+00
4.83E+00
4.81E+00
4.82E+00
4.81E+00
4.83E+00
4.84E+00
4.82E+00
4.81E+00
4.80E+00
4.82E+00
4.81E+00
4.81E+00
4.78E+00
4.77E+00
4.77E+00
4.79E+00
4.81E+00
4.81E+00
4.77E+00
4.77E+00
4.79E+00
4.79E+00
4.80E+00
4.80E+00
4.78E+00
4.77E+00
4.77E+00
4.77E+00
4.79E+00
4.79E+00
4.78E+00
4.75E+00
4.75E+00
4.78E+00
4.81E+00
4.82E+00
4.80E+00
4.79E+00
4.79E+00
4.81E+00
4.82E+00
4.83E+00
4.82E+00
4.80E+00
4.81E+00
4.80E+00
4.81E+00
4.81E+00
4.79E+00
4.80E+00
4.80E+00
4.81E+00
4.83E+00
4.82E+00
4.82E+00
4.81E+00
4.81E+00
4.80E+00
4.81E+00
4.82E+00
4.82E+00
4.81E+00
4.83E+00
4.84E+00
4.84E+00
4.83E+00
4.81E+00
4.78E+00
4.78E+00
4.81E+00
4.85E+00
4.86E+00
4.85E+00
4.83E+00
4.84E+00
4.83E+00
4.84E+00
4.84E+00
4.82E+00
4.82E+00
4.81E+00
4.83E+00
4.84E+00
4.84E+00
4.83E+00
4.82E+00
4.81E+00
4.84E+00
4.86E+00
4.87E+00
4.88E+00
4.88E+00
4.89E+00
4.90E+00
4.91E+00
4.91E+00
4.92E+00
4.94E+00
4.95E+00
4.98E+00
5.00E+00
5.01E+00
5.02E+00
5.02E+00
5.04E+00
5.06E+00
5.07E+00
5.06E+00
5.06E+00
5.06E+00
5.06E+00
5.06E+00
5.07E+00
5.05E+00
5.03E+00
4.98E+00
4.93E+00
4.90E+00
4.85E+00
4.81E+00
4.78E+00
4.76E+00
4.76E+00
4.78E+00
4.80E+00
4.81E+00
4.80E+00
4.78E+00
4.78E+00
4.78E+00
4.78E+00
4.78E+00
4.75E+00
4.76E+00
4.78E+00
4.79E+00
4.81E+00
4.80E+00
4.78E+00
4.75E+00
4.76E+00
4.79E+00
4.78E+00
4.78E+00
4.79E+00
4.76E+00
4.76E+00
4.77E+00
4.79E+00
4.79E+00
4.80E+00
4.79E+00
4.78E+00
4.78E+00
4.80E+00
4.80E+00
4.78E+00
4.75E+00
4.73E+00
4.75E+00
4.79E+00
4.81E+00
4.82E+00
4.83E+00
4.83E+00
4.78E+00
4.68E+00
4.63E+00
4.60E+00
4.59E+00
4.61E+00
4.60E+00
4.58E+00
4.53E+00
4.48E+00
4.43E+00
4.41E+00
4.39E+00
4.36E+00
4.30E+00
4.25E+00
4.21E+00
4.20E+00
4.21E+00
4.24E+00
4.26E+00
4.27E+00
4.29E+00
4.35E+00
4.46E+00
4.54E+00
4.59E+00
4.64E+00
4.67E+00
4.72E+00
4.77E+00
4.80E+00
4.82E+00
4.83E+00
4.82E+00
4.82E+00
4.83E+00
4.85E+00
4.84E+00
4.84E+00
4.84E+00
4.86E+00
4.88E+00
4.88E+00
4.87E+00
4.84E+00
4.82E+00
4.85E+00
4.89E+00
4.91E+00
4.91E+00
4.90E+00
4.88E+00
4.87E+00
4.87E+00
4.88E+00
4.88E+00
4.87E+00
4.88E+00
4.88E+00
4.89E+00
4.89E+00
4.90E+00
4.90E+00
4.89E+00
4.92E+00
4.92E+00
4.93E+00
4.94E+00
4.94E+00
4.93E+00
4.91E+00
4.91E+00
4.93E+00
4.94E+00
4.95E+00
4.94E+00
4.93E+00
4.94E+00
4.96E+00
4.98E+00
4.96E+00
4.96E+00
4.98E+00
4.98E+00
4.99E+00
4.96E+00
4.95E+00
4.94E+00
4.96E+00
5.01E+00
5.02E+00
5.02E+00
5.00E+00
4.99E+00
5.02E+00
5.05E+00
5.08E+00
5.08E+00
5.02E+00
5.01E+00
5.02E+00
5.03E+00
5.05E+00
5.05E+00
5.03E+00
5.01E+00
4.99E+00
5.00E+00
5.03E+00
5.02E+00
4.98E+00
5.00E+00
5.02E+00
5.02E+00
5.00E+00
4.97E+00
4.96E+00
4.95E+00
4.94E+00
4.95E+00
4.95E+00
4.93E+00
4.89E+00
4.88E+00
4.92E+00
4.96E+00
4.97E+00
4.94E+00
4.92E+00
4.90E+00
4.94E+00
4.95E+00
4.96E+00
4.96E+00
4.93E+00
4.90E+00
4.90E+00
4.92E+00
4.93E+00
4.91E+00
4.93E+00
4.92E+00
4.91E+00
4.91E+00
4.91E+00
4.91E+00
4.90E+00
4.92E+00
4.93E+00
4.95E+00
4.97E+00
4.95E+00
4.92E+00
4.89E+00
4.89E+00
4.90E+00
4.91E+00
4.91E+00
4.91E+00
4.89E+00
4.90E+00
4.90E+00
4.90E+00
4.89E+00
4.88E+00
4.88E+00
4.88E+00
4.88E+00
4.87E+00
4.86E+00
4.85E+00
4.83E+00
4.85E+00
4.89E+00
4.87E+00
4.84E+00
4.82E+00
4.83E+00
4.81E+00
4.79E+00
4.77E+00
4.78E+00
4.78E+00
4.75E+00
4.71E+00
4.78E+00
4.86E+00
4.87E+00
4.82E+00
4.82E+00
4.85E+00
4.88E+00
4.89E+00
4.88E+00
4.84E+00
4.84E+00
4.89E+00
4.93E+00
4.92E+00
4.90E+00
4.88E+00
4.88E+00
4.89E+00
4.90E+00
4.89E+00
4.89E+00
4.88E+00
4.86E+00
4.87E+00
4.90E+00
4.90E+00
4.90E+00
4.88E+00
4.87E+00
4.86E+00
4.89E+00
4.90E+00
4.89E+00
4.88E+00
4.88E+00
4.88E+00
4.89E+00
4.89E+00
4.90E+00
4.88E+00
4.87E+00
4.87E+00
4.89E+00
4.91E+00
4.90E+00
4.87E+00
4.86E+00
4.86E+00
4.86E+00
4.89E+00
4.90E+00
4.90E+00
4.85E+00
4.87E+00
4.86E+00
4.86E+00
4.85E+00
4.87E+00
4.89E+00
4.90E+00
4.87E+00
4.84E+00
4.82E+00
4.85E+00
4.92E+00
5.00E+00
5.02E+00
4.98E+00
4.98E+00
4.98E+00
4.98E+00
4.97E+00
4.96E+00
4.98E+00
5.01E+00
5.03E+00
5.03E+00
5.04E+00
5.06E+00
5.08E+00
5.09E+00
5.08E+00
5.09E+00
5.11E+00
5.12E+00
5.12E+00
5.11E+00
5.12E+00
5.13E+00
5.13E+00
5.13E+00
5.13E+00
5.09E+00
5.04E+00
4.99E+00
4.96E+00
4.92E+00
4.87E+00
4.84E+00
4.84E+00
4.85E+00
4.88E+00
4.90E+00
4.88E+00
4.84E+00
4.81E+00
4.79E+00
4.82E+00
4.86E+00
4.87E+00
4.86E+00
4.81E+00
4.76E+00
4.73E+00
4.73E+00
4.76E+00
4.82E+00
4.87E+00
4.85E+00
4.83E+00
4.84E+00
4.82E+00
4.80E+00
4.84E+00
4.89E+00
4.92E+00
4.89E+00
4.87E+00
4.87E+00
4.85E+00
4.82E+00
4.81E+00
4.84E+00
4.86E+00
4.86E+00
4.82E+00
4.74E+00
4.69E+00
4.72E+00
4.76E+00
4.74E+00
4.72E+00
4.70E+00
4.66E+00
4.61E+00
4.56E+00
4.53E+00
4.55E+00
4.53E+00
4.51E+00
4.49E+00
4.45E+00
4.42E+00
4.39E+00
4.39E+00
4.37E+00
4.34E+00
4.28E+00
4.22E+00
4.18E+00
4.17E+00
4.22E+00
4.30E+00
4.36E+00
4.39E+00
4.42E+00
4.49E+00
4.56E+00
4.62E+00
4.67E+00
4.72E+00
4.81E+00
4.89E+00
4.91E+00
4.91E+00
4.93E+00
4.93E+00
4.93E+00
4.90E+00
4.91E+00
4.92E+00
4.95E+00
4.93E+00
4.91E+00
4.89E+00
4.89E+00
4.92E+00
4.93E+00
4.94E+00
4.96E+00
4.97E+00
4.97E+00
4.95E+00
4.91E+00
4.86E+00
4.89E+00
4.94E+00
5.01E+00
5.05E+00
5.06E+00
5.02E+00
5.00E+00
4.98E+00
4.96E+00
4.98E+00
4.98E+00
4.99E+00
4.99E+00
4.99E+00
5.00E+00
5.00E+00
5.01E+00
5.01E+00
5.01E+00
4.99E+00
5.00E+00
5.03E+00
5.05E+00
5.06E+00
5.06E+00
5.06E+00
5.05E+00
5.04E+00
5.05E+00
5.05E+00
5.06E+00
5.06E+00
5.06E+00
5.05E+00
5.05E+00
5.05E+00
5.09E+00
5.11E+00
5.09E+00
5.07E+00
5.08E+00
5.10E+00
5.11E+00
5.10E+00
5.12E+00
5.13E+00
5.11E+00
5.11E+00
5.11E+00
5.11E+00
5.11E+00
5.11E+00
5.11E+00
5.08E+00
5.06E+00
5.04E+00
5.03E+00
5.03E+00
5.07E+00
5.09E+00
5.08E+00
5.05E+00
5.02E+00
5.03E+00
5.05E+00
5.05E+00
5.04E+00
5.01E+00
4.99E+00
5.00E+00
5.00E+00
4.99E+00
4.96E+00
4.95E+00
4.96E+00
4.96E+00
4.96E+00
4.97E+00
4.95E+00
4.94E+00
4.94E+00
4.95E+00
4.94E+00
4.94E+00
4.93E+00
4.92E+00
4.91E+00
4.91E+00
4.92E+00
4.92E+00
4.91E+00
4.91E+00
4.91E+00
4.90E+00
4.90E+00
4.87E+00
4.87E+00
4.87E+00
4.88E+00
4.87E+00
4.87E+00
4.88E+00
4.91E+00
4.91E+00
4.90E+00
4.89E+00
4.90E+00
4.90E+00
4.88E+00
4.85E+00
4.86E+00
4.87E+00
4.88E+00
4.88E+00
4.86E+00
4.84E+00
4.84E+00
4.83E+00
4.84E+00
4.82E+00
4.81E+00
4.81E+00
4.81E+00
4.82E+00
4.82E+00
4.81E+00
4.78E+00
4.77E+00
4.77E+00
4.79E+00
4.80E+00
4.80E+00
4.79E+00
4.75E+00
4.75E+00
4.75E+00
4.78E+00
4.78E+00
4.77E+00
4.76E+00
4.75E+00
4.76E+00
4.77E+00
4.76E+00
4.76E+00
4.77E+00
4.78E+00
4.76E+00
4.72E+00
4.71E+00
4.76E+00
4.79E+00
4.80E+00
4.79E+00
4.76E+00
4.75E+00
4.75E+00
4.75E+00
4.75E+00
4.75E+00
4.76E+00
4.75E+00
4.75E+00
4.74E+00
4.76E+00
4.78E+00
4.78E+00
4.79E+00
4.79E+00
4.76E+00
4.75E+00
4.77E+00
4.78E+00
4.77E+00
4.75E+00
4.73E+00
4.74E+00
4.76E+00
4.77E+00
4.77E+00
4.77E+00
4.76E+00
4.77E+00
4.78E+00
4.77E+00
4.76E+00
4.75E+00
4.76E+00
4.77E+00
4.76E+00
4.75E+00
4.74E+00
4.75E+00
4.77E+00
4.77E+00
4.77E+00
4.76E+00
4.76E+00
4.75E+00
4.75E+00
4.77E+00
4.77E+00
4.78E+00
4.78E+00
4.76E+00
4.75E+00
4.78E+00
4.82E+00
4.82E+00
4.80E+00
4.78E+00
4.79E+00
4.83E+00
4.86E+00
4.86E+00
4.85E+00
4.84E+00
4.83E+00
4.83E+00
4.85E+00
4.88E+00
4.95E+00
4.97E+00
4.97E+00
4.97E+00
4.98E+00
5.00E+00
5.00E+00
4.99E+00
5.00E+00
5.00E+00
5.01E+00
5.02E+00
5.02E+00
4.99E+00
4.95E+00
4.92E+00
4.91E+00
4.89E+00
4.84E+00
4.78E+00
4.73E+00
4.71E+00
4.72E+00
4.74E+00
4.74E+00
4.74E+00
4.73E+00
4.74E+00
4.75E+00
4.76E+00
4.74E+00
4.73E+00
4.72E+00
4.75E+00
4.75E+00
4.75E+00
4.75E+00
4.75E+00
4.74E+00
4.72E+00
4.73E+00
4.76E+00
4.76E+00
4.74E+00
4.73E+00
4.72E+00
4.73E+00
4.76E+00
4.77E+00
4.76E+00
4.74E+00
4.73E+00
4.76E+00
4.78E+00
4.77E+00
4.73E+00
4.68E+00
4.68E+00
4.71E+00
4.74E+00
4.73E+00
4.73E+00
4.70E+00
4.66E+00
4.58E+00
4.51E+00
4.48E+00
4.48E+00
4.47E+00
4.47E+00
4.44E+00
4.40E+00
4.36E+00
4.30E+00
4.26E+00
4.28E+00
4.27E+00
4.22E+00
4.18E+00
4.14E+00
4.12E+00
4.16E+00
4.23E+00
4.27E+00
4.28E+00
4.32E+00
4.38E+00
4.46E+00
4.50E+00
4.56E+00
4.60E+00
4.68E+00
4.72E+00
4.77E+00
4.78E+00
4.79E+00
4.79E+00
4.79E+00
4.78E+00
4.81E+00
4.83E+00
4.84E+00
4.84E+00
4.81E+00
4.80E+00
4.81E+00
4.84E+00
4.85E+00
4.84E+00
4.82E+00
4.81E+00
4.82E+00
4.82E+00
4.84E+00
4.86E+00
4.85E+00
4.84E+00
4.84E+00
4.85E+00
4.84E+00
4.83E+00
4.82E+00
4.81E+00
4.84E+00
4.87E+00
4.90E+00
4.90E+00
4.88E+00
4.86E+00
4.87E+00
4.88E+00
4.90E+00
4.90E+00
4.91E+00
4.90E+00
4.90E+00
4.91E+00
4.92E+00
4.92E+00
4.92E+00
4.92E+00
4.92E+00
4.92E+00
4.93E+00
4.93E+00
4.93E+00
4.92E+00
4.93E+00
4.96E+00
4.99E+00
5.00E+00
4.98E+00
4.97E+00
4.98E+00
4.98E+00
4.99E+00
4.99E+00
4.97E+00
4.97E+00
4.97E+00
5.00E+00
5.02E+00
5.01E+00
5.01E+00
4.98E+00
4.99E+00
4.99E+00
5.01E+00
4.99E+00
5.00E+00
4.97E+00
4.98E+00
4.99E+00
4.99E+00
4.97E+00
4.95E+00
4.96E+00
4.98E+00
4.99E+00
4.97E+00
4.95E+00
4.92E+00
4.92E+00
4.92E+00
4.93E+00
4.93E+00
4.91E+00
4.91E+00
4.88E+00
4.89E+00
4.88E+00
4.88E+00
4.87E+00
4.87E+00
4.86E+00
4.87E+00
4.89E+00
4.89E+00
4.87E+00
4.86E+00
4.84E+00
4.86E+00
4.86E+00
4.86E+00
4.83E+00
4.81E+00
4.82E+00
4.87E+00
4.90E+00
4.89E+00
4.86E+00
4.84E+00
4.81E+00
4.82E+00
4.84E+00
4.86E+00
4.88E+00
4.87E+00
4.84E+00
4.84E+00
4.84E+00
4.85E+00
4.84E+00
4.84E+00
4.83E+00
4.82E+00
4.84E+00
4.85E+00
4.85E+00
4.83E+00
4.81E+00
4.81E+00
4.83E+00
4.85E+00
4.83E+00
4.81E+00
4.80E+00
4.82E+00
4.82E+00
4.84E+00
4.81E+00
4.80E+00
4.79E+00
4.82E+00
4.81E+00
4.82E+00
4.81E+00
4.78E+00
4.78E+00
4.78E+00
4.79E+00
4.80E+00
4.79E+00
4.78E+00
4.77E+00
4.77E+00
4.78E+00
4.78E+00
4.78E+00
4.75E+00
4.74E+00
4.75E+00
4.77E+00
4.79E+00
4.80E+00
4.78E+00
4.76E+00
4.74E+00
4.74E+00
4.75E+00
4.75E+00
4.76E+00
4.77E+00
4.77E+00
4.78E+00
4.79E+00
4.78E+00
4.76E+00
4.76E+00
4.77E+00
4.77E+00
4.77E+00
4.76E+00
4.75E+00
4.74E+00
4.75E+00
4.77E+00
4.80E+00
4.80E+00
4.80E+00
4.78E+00
4.78E+00
4.79E+00
4.79E+00
4.79E+00
4.81E+00
4.79E+00
4.79E+00
4.80E+00
4.80E+00
4.80E+00
4.79E+00
4.79E+00
4.80E+00
4.80E+00
4.82E+00
4.81E+00
4.81E+00
4.80E+00
4.80E+00
4.81E+00
4.82E+00
4.82E+00
4.81E+00
4.81E+00
4.82E+00
4.82E+00
4.83E+00
4.84E+00
4.82E+00
4.81E+00
4.81E+00
4.82E+00
4.83E+00
4.82E+00
4.82E+00
4.81E+00
4.81E+00
4.81E+00
4.83E+00
4.83E+00
4.81E+00
4.81E+00
4.82E+00
4.83E+00
4.82E+00
4.82E+00
4.83E+00
4.81E+00
4.80E+00
4.82E+00
4.88E+00
4.90E+00
4.91E+00
4.90E+00
4.90E+00
4.91E+00
4.93E+00
4.92E+00
4.95E+00
4.96E+00
4.99E+00
5.00E+00
5.01E+00
5.04E+00
5.03E+00
5.03E+00
5.02E+00
5.03E+00
5.04E+00
5.05E+00
5.05E+00
5.06E+00
5.06E+00
5.08E+00
5.05E+00
5.02E+00
4.96E+00
4.92E+00
4.91E+00
4.87E+00
4.84E+00
4.80E+00
4.79E+00
4.77E+00
4.78E+00
4.79E+00
4.78E+00
4.78E+00
4.76E+00
4.76E+00
4.74E+00
4.76E+00
4.80E+00
4.82E+00
4.81E+00
4.79E+00
4.78E+00
4.77E+00
4.79E+00
4.78E+00
4.76E+00
4.77E+00
4.77E+00
4.78E+00
4.78E+00
4.77E+00
4.76E+00
4.76E+00
4.77E+00
4.78E+00
4.79E+00
4.78E+00
4.78E+00
4.79E+00
4.77E+00
4.77E+00
4.77E+00
4.77E+00
4.77E+00
4.75E+00
4.73E+00
4.75E+00
4.74E+00
4.72E+00
4.70E+00
4.70E+00
4.71E+00
4.71E+00
4.73E+00
4.74E+00
4.69E+00
4.59E+00
4.54E+00
4.51E+00
4.54E+00
4.55E+00
4.52E+00
4.49E+00
4.46E+00
4.42E+00
4.40E+00
4.36E+00
4.33E+00
4.33E+00
4.32E+00
4.27E+00
4.21E+00
4.17E+00
4.16E+00
4.15E+00
4.17E+00
4.21E+00
4.25E+00
4.28E+00
4.31E+00
4.35E+00
4.43E+00
4.51E+00
4.57E+00
4.61E+00
4.64E+00
4.68E+00
4.76E+00
4.79E+00
4.81E+00
4.83E+00
4.84E+00
4.84E+00
4.84E+00
4.85E+00
4.86E+00
4.88E+00
4.87E+00
4.86E+00
4.86E+00
4.88E+00
4.90E+00
4.88E+00
4.87E+00
4.85E+00
4.85E+00
4.87E+00
4.88E+00
4.90E+00
4.88E+00
4.87E+00
4.88E+00
4.89E+00
4.90E+00
4.90E+00
4.90E+00
4.89E+00
4.91E+00
4.91E+00
4.91E+00
4.92E+00
4.91E+00
4.90E+00
4.91E+00
4.90E+00
4.91E+00
4.91E+00
4.90E+00
4.89E+00
4.91E+00
4.93E+00
4.92E+00
4.92E+00
4.94E+00
4.94E+00
4.95E+00
4.94E+00
4.93E+00
4.94E+00
4.95E+00
4.93E+00
4.95E+00
4.96E+00
4.98E+00
4.99E+00
4.99E+00
4.99E+00
4.99E+00
4.99E+00
4.99E+00
5.00E+00
5.00E+00
5.01E+00
5.01E+00
4.99E+00
5.01E+00
5.01E+00
5.01E+00
5.01E+00
5.04E+00
5.05E+00
5.04E+00
5.04E+00
5.02E+00
5.01E+00
5.01E+00
5.01E+00
5.00E+00
5.00E+00
5.00E+00
5.00E+00
4.99E+00
4.99E+00
4.99E+00
4.98E+00
4.97E+00
4.97E+00
4.98E+00
4.98E+00
4.97E+00
4.93E+00
4.92E+00
4.90E+00
4.91E+00
4.91E+00
4.89E+00
4.88E+00
4.88E+00
4.88E+00
4.87E+00
4.87E+00
4.89E+00
4.89E+00
4.87E+00
4.84E+00
4.85E+00
4.86E+00
4.86E+00
4.84E+00
4.85E+00
4.84E+00
4.87E+00
4.86E+00
4.85E+00
4.85E+00
4.83E+00
4.83E+00
4.82E+00
4.81E+00
4.82E+00
4.82E+00
4.82E+00
4.82E+00
4.82E+00
4.84E+00
4.84E+00
4.84E+00
4.82E+00
4.81E+00
4.82E+00
4.82E+00
4.83E+00
4.81E+00
4.78E+00
4.77E+00
4.79E+00
4.81E+00
4.80E+00
4.80E+00
4.78E+00
4.78E+00
4.76E+00
4.77E+00
4.80E+00
4.80E+00
4.78E+00
4.77E+00
4.77E+00
4.79E+00
4.81E+00
4.81E+00
4.79E+00
4.76E+00
4.75E+00
4.77E+00
4.78E+00
4.78E+00
4.74E+00
4.72E+00
4.73E+00
4.73E+00
4.74E+00
4.74E+00
4.73E+00
4.71E+00
4.72E+00
4.72E+00
4.71E+00
4.72E+00
4.73E+00
4.72E+00
4.74E+00
4.73E+00
4.73E+00
4.73E+00
4.71E+00
4.71E+00
4.72E+00
4.74E+00
4.74E+00
4.72E+00
4.71E+00
4.71E+00
4.72E+00
4.73E+00
4.72E+00
4.73E+00
4.73E+00
4.71E+00
4.71E+00
4.72E+00
4.74E+00
4.75E+00
4.75E+00
4.73E+00
4.72E+00
4.74E+00
4.74E+00
4.75E+00
4.73E+00
4.72E+00
4.75E+00
4.75E+00
4.74E+00
4.72E+00
4.72E+00
4.75E+00
4.78E+00
4.79E+00
4.79E+00
4.76E+00
4.73E+00
4.72E+00
4.75E+00
4.77E+00
4.78E+00
4.76E+00
4.77E+00
4.76E+00
4.77E+00
4.79E+00
4.77E+00
4.76E+00
4.76E+00
4.75E+00
4.77E+00
4.78E+00
4.78E+00
4.78E+00
4.77E+00
4.76E+00
4.74E+00
4.75E+00
4.77E+00
4.80E+00
4.79E+00
4.77E+00
4.76E+00
4.77E+00
4.77E+00
4.80E+00
4.81E+00
4.79E+00
4.78E+00
4.77E+00
4.78E+00
4.77E+00
4.77E+00
4.76E+00
4.77E+00
4.78E+00
4.78E+00
4.79E+00
4.78E+00
4.76E+00
4.73E+00
4.74E+00
4.78E+00
4.84E+00
4.86E+00
4.84E+00
4.84E+00
4.85E+00
4.86E+00
4.86E+00
4.85E+00
4.84E+00
4.88E+00
4.89E+00
4.92E+00
4.93E+00
4.94E+00
4.94E+00
4.98E+00
4.99E+00
5.02E+00
4.99E+00
4.97E+00
4.98E+00
5.00E+00
5.02E+00
5.05E+00
5.04E+00
5.04E+00
4.99E+00
4.91E+00
4.87E+00
4.86E+00
4.84E+00
4.81E+00
4.76E+00
4.75E+00
4.74E+00
4.76E+00
4.75E+00
4.75E+00
4.73E+00
4.74E+00
4.75E+00
4.75E+00
4.73E+00
4.73E+00
4.72E+00
4.73E+00
4.74E+00
4.74E+00
4.74E+00
4.72E+00
4.72E+00
4.74E+00
4.75E+00
4.76E+00
4.75E+00
4.73E+00
4.73E+00
4.72E+00
4.72E+00
4.73E+00
4.76E+00
4.74E+00
4.73E+00
4.72E+00
4.73E+00
4.73E+00
4.74E+00
4.74E+00
4.72E+00
4.74E+00
4.75E+00
4.74E+00
4.72E+00
4.67E+00
4.68E+00
4.71E+00
4.73E+00
4.75E+00
4.74E+00
4.73E+00
4.66E+00
4.58E+00
4.52E+00
4.50E+00
4.48E+00
4.47E+00
4.47E+00
4.47E+00
4.44E+00
4.39E+00
4.34E+00
4.30E+00
4.27E+00
4.27E+00
4.23E+00
4.19E+00
4.14E+00
4.11E+00
4.10E+00
4.11E+00
4.14E+00
4.19E+00
4.24E+00
4.24E+00
4.29E+00
4.38E+00
4.47E+00
4.54E+00
4.58E+00
4.60E+00
4.62E+00
4.67E+00
4.73E+00
4.79E+00
4.81E+00
4.81E+00
4.80E+00
4.81E+00
4.82E+00
4.84E+00
4.84E+00
4.84E+00
4.82E+00
4.83E+00
4.84E+00
4.84E+00
4.85E+00
4.84E+00
4.82E+00
4.83E+00
4.85E+00
4.86E+00
4.86E+00
4.85E+00
4.84E+00
4.84E+00
4.84E+00
4.85E+00
4.87E+00
4.87E+00
4.86E+00
4.84E+00
4.86E+00
4.87E+00
4.86E+00
4.87E+00
4.87E+00
4.86E+00
4.88E+00
4.88E+00
4.88E+00
4.89E+00
4.89E+00
4.90E+00
4.90E+00
4.92E+00
4.91E+00
4.90E+00
4.89E+00
4.89E+00
4.90E+00
4.92E+00
4.94E+00
4.94E+00
4.94E+00
4.93E+00
4.92E+00
4.94E+00
4.95E+00
4.96E+00
4.95E+00
4.95E+00
4.97E+00
4.97E+00
4.97E+00
4.97E+00
4.96E+00
4.96E+00
4.97E+00
4.97E+00
4.97E+00
4.97E+00
4.98E+00
4.99E+00
4.98E+00
4.97E+00
4.98E+00
4.97E+00
4.96E+00
4.97E+00
4.99E+00
5.00E+00
4.99E+00
4.99E+00
4.98E+00
4.98E+00
4.97E+00
4.97E+00
4.96E+00
4.95E+00
4.92E+00
4.91E+00
4.90E+00
4.92E+00
4.91E+00
4.90E+00
4.89E+00
4.89E+00
4.88E+00
4.89E+00
4.87E+00
4.85E+00
4.85E+00
4.84E+00
4.86E+00
4.87E+00
4.87E+00
4.84E+00
4.83E+00
4.84E+00
4.85E+00
4.85E+00
4.85E+00
4.86E+00
4.85E+00
4.84E+00
4.85E+00
4.86E+00
4.84E+00
4.83E+00
4.83E+00
4.84E+00
4.86E+00
4.85E+00
4.84E+00
4.83E+00
4.82E+00
4.82E+00
4.84E+00
4.84E+00
4.84E+00
4.82E+00
4.81E+00
4.81E+00
4.83E+00
4.83E+00
4.83E+00
4.82E+00
4.81E+00
4.80E+00
4.82E+00
4.82E+00
4.82E+00
4.82E+00
4.79E+00
4.79E+00
4.79E+00
4.81E+00
4.81E+00
4.79E+00
4.77E+00
4.79E+00
4.80E+00
4.80E+00
4.80E+00
4.79E+00
4.77E+00
4.76E+00
4.77E+00
4.77E+00
4.78E+00
4.77E+00
4.74E+00
4.75E+00
4.75E+00
4.76E+00
4.75E+00
4.74E+00
4.72E+00
4.72E+00
4.73E+00
4.75E+00
4.75E+00
4.73E+00
4.71E+00
4.72E+00
4.72E+00
4.74E+00
4.76E+00
4.75E+00
4.73E+00
4.72E+00
4.72E+00
4.74E+00
4.76E+00
4.76E+00
4.74E+00
4.73E+00
4.72E+00
4.74E+00
4.75E+00
4.73E+00
4.74E+00
4.77E+00
4.78E+00
4.76E+00
4.74E+00
4.73E+00
4.74E+00
4.76E+00
4.76E+00
4.77E+00
4.77E+00
4.75E+00
4.75E+00
4.74E+00
4.75E+00
4.75E+00
4.75E+00
4.78E+00
4.78E+00
4.77E+00
4.77E+00
4.77E+00
4.77E+00
4.78E+00
4.77E+00
4.77E+00
4.77E+00
4.77E+00
4.75E+00
4.76E+00
4.76E+00
4.76E+00
4.77E+00
4.78E+00
4.76E+00
4.77E+00
4.75E+00
4.76E+00
4.77E+00
4.76E+00
4.76E+00
4.76E+00
4.76E+00
4.76E+00
4.77E+00
4.78E+00
4.79E+00
4.79E+00
4.77E+00
4.79E+00
4.81E+00
4.80E+00
4.81E+00
4.82E+00
4.80E+00
4.81E+00
4.84E+00
4.85E+00
4.86E+00
4.90E+00
4.93E+00
4.95E+00
4.94E+00
4.95E+00
4.97E+00
4.97E+00
4.97E+00
4.97E+00
4.98E+00
5.00E+00
5.02E+00
5.01E+00
4.98E+00
4.97E+00
4.94E+00
4.91E+00
4.88E+00
4.84E+00
4.80E+00
4.75E+00
4.73E+00
4.72E+00
4.70E+00
4.71E+00
4.71E+00
4.70E+00
4.72E+00
4.72E+00
4.72E+00
4.71E+00
4.70E+00
4.68E+00
4.68E+00
4.71E+00
4.73E+00
4.72E+00
4.69E+00
4.69E+00
4.70E+00
4.72E+00
4.70E+00
4.71E+00
4.72E+00
4.72E+00
4.72E+00
4.72E+00
4.70E+00
4.69E+00
4.68E+00
4.69E+00
4.70E+00
4.70E+00
4.71E+00
4.72E+00
4.70E+00
4.71E+00
4.71E+00
4.71E+00
4.70E+00
4.68E+00
4.65E+00
4.66E+00
4.70E+00
4.74E+00
4.73E+00
4.71E+00
4.72E+00
4.69E+00
4.62E+00
4.52E+00
4.47E+00
4.46E+00
4.46E+00
4.44E+00
4.43E+00
4.43E+00
4.38E+00
4.33E+00
4.28E+00
4.24E+00
4.22E+00
4.21E+00
4.16E+00
4.10E+00
4.05E+00
4.06E+00
4.08E+00
4.12E+00
4.17E+00
4.20E+00
4.21E+00
4.25E+00
4.33E+00
4.43E+00
4.49E+00
4.52E+00
4.55E+00
4.61E+00
4.68E+00
4.73E+00
4.74E+00
4.74E+00
4.74E+00
4.75E+00
4.76E+00
4.78E+00
4.79E+00
4.78E+00
4.77E+00
4.77E+00
4.79E+00
4.80E+00
4.79E+00
4.79E+00
4.79E+00
4.80E+00
4.82E+00
4.83E+00
4.83E+00
4.82E+00
4.80E+00
4.80E+00
4.79E+00
4.81E+00
4.82E+00
4.83E+00
4.81E+00
4.82E+00
4.82E+00
4.83E+00
4.84E+00
4.84E+00
4.83E+00
4.84E+00
4.86E+00
4.87E+00
4.86E+00
4.85E+00
4.84E+00
4.86E+00
4.87E+00
4.85E+00
4.86E+00
4.87E+00
4.88E+00
4.89E+00
4.88E+00
4.89E+00
4.91E+00
4.91E+00
4.90E+00
4.90E+00
4.91E+00
4.92E+00
4.92E+00
4.92E+00
4.91E+00
4.92E+00
4.91E+00
4.93E+00
4.93E+00
4.93E+00
4.92E+00
4.91E+00
4.91E+00
4.95E+00
4.97E+00
4.96E+00
4.94E+00
4.94E+00
4.96E+00
4.97E+00
4.97E+00
4.96E+00
4.94E+00
4.93E+00
4.94E+00
4.94E+00
4.91E+00
4.90E+00
4.89E+00
4.89E+00
4.89E+00
4.90E+00
4.88E+00
4.87E+00
4.86E+00
4.85E+00
4.86E+00
4.85E+00
4.84E+00
4.83E+00
4.81E+00
4.82E+00
4.82E+00
4.82E+00
4.82E+00
4.80E+00
4.76E+00
4.78E+00
4.79E+00
4.81E+00
4.79E+00
4.80E+00
4.77E+00
4.79E+00
4.78E+00
4.79E+00
4.78E+00
4.77E+00
4.77E+00
4.75E+00
4.76E+00
4.79E+00
4.79E+00
4.78E+00
4.76E+00
4.77E+00
4.76E+00
4.78E+00
4.77E+00
4.77E+00
4.76E+00
4.77E+00
4.76E+00
4.78E+00
4.77E+00
4.77E+00
4.76E+00
4.75E+00
4.76E+00
4.77E+00
4.76E+00
4.78E+00
4.75E+00
4.76E+00
4.77E+00
4.78E+00
4.77E+00
4.75E+00
4.74E+00
4.73E+00
4.75E+00
4.76E+00
4.75E+00
4.73E+00
4.72E+00
4.71E+00
4.72E+00
4.72E+00
4.72E+00
4.72E+00
4.70E+00
4.71E+00
4.72E+00
4.74E+00
4.73E+00
4.72E+00
4.71E+00
4.70E+00
4.71E+00
4.71E+00
4.72E+00
4.72E+00
4.71E+00
4.70E+00
4.71E+00
4.71E+00
4.69E+00
4.70E+00
4.69E+00
4.69E+00
4.70E+00
4.71E+00
4.71E+00
4.73E+00
4.71E+00
4.69E+00
4.67E+00
4.70E+00
4.70E+00
4.70E+00
4.69E+00
4.70E+00
4.70E+00
4.70E+00
4.69E+00
4.70E+00
4.70E+00
4.72E+00
4.73E+00
4.72E+00
4.71E+00
4.72E+00
4.73E+00
4.74E+00
4.75E+00
4.75E+00
4.74E+00
4.72E+00
4.71E+00
4.71E+00
4.72E+00
4.73E+00
4.73E+00
4.71E+00
4.70E+00
4.73E+00
4.74E+00
4.74E+00
4.75E+00
4.74E+00
4.73E+00
4.73E+00
4.74E+00
4.73E+00
4.72E+00
4.71E+00
4.72E+00
4.71E+00
4.73E+00
4.72E+00
4.73E+00
4.72E+00
4.73E+00
4.75E+00
4.76E+00
4.76E+00
4.75E+00
4.74E+00
4.73E+00
4.73E+00
4.75E+00
4.76E+00
4.75E+00
4.73E+00
4.73E+00
4.74E+00
4.75E+00
4.76E+00
4.76E+00
4.75E+00
4.74E+00
4.76E+00
4.80E+00
4.83E+00
4.84E+00
4.81E+00
4.81E+00
4.84E+00
4.86E+00
4.88E+00
4.90E+00
4.91E+00
4.92E+00
4.91E+00
4.94E+00
4.97E+00
4.99E+00
4.98E+00
4.96E+00
4.95E+00
4.98E+00
4.99E+00
5.00E+00
5.00E+00
4.99E+00
4.98E+00
4.94E+00
4.89E+00
4.85E+00
4.81E+00
4.77E+00
4.71E+00
4.70E+00
4.70E+00
4.71E+00
4.71E+00
4.71E+00
4.72E+00
4.73E+00
4.72E+00
4.72E+00
4.70E+00
4.71E+00
4.71E+00
4.70E+00
4.69E+00
4.68E+00
4.69E+00
4.70E+00
4.71E+00
4.72E+00
4.72E+00
4.71E+00
4.71E+00
4.71E+00
4.71E+00
4.72E+00
4.73E+00
4.72E+00
4.71E+00
4.70E+00
4.71E+00
4.71E+00
4.71E+00
4.72E+00
4.72E+00
4.70E+00
4.72E+00
4.73E+00
4.74E+00
4.73E+00
4.71E+00
4.69E+00
4.69E+00
4.74E+00
4.76E+00
4.76E+00
4.75E+00
4.74E+00
4.70E+00
4.62E+00
4.55E+00
4.50E+00
4.50E+00
4.49E+00
4.49E+00
4.48E+00
4.44E+00
4.40E+00
4.36E+00
4.34E+00
4.30E+00
4.30E+00
4.26E+00
4.23E+00
4.19E+00
4.16E+00
4.14E+00
4.14E+00
4.14E+00
4.18E+00
4.23E+00
4.24E+00
4.27E+00
4.34E+00
4.43E+00
4.50E+00
4.52E+00
4.55E+00
4.58E+00
4.64E+00
4.69E+00
4.75E+00
4.79E+00
4.79E+00
4.80E+00
4.82E+00
4.82E+00
4.82E+00
4.80E+00
4.79E+00
4.78E+00
4.81E+00
4.83E+00
4.85E+00
4.84E+00
4.83E+00
4.83E+00
4.84E+00
4.85E+00
4.86E+00
4.86E+00
4.85E+00
4.86E+00
4.85E+00
4.85E+00
4.85E+00
4.85E+00
4.85E+00
4.86E+00
4.86E+00
4.87E+00
4.87E+00
4.86E+00
4.85E+00
4.86E+00
4.88E+00
4.87E+00
4.86E+00
4.87E+00
4.87E+00
4.90E+00
4.91E+00
4.91E+00
4.90E+00
4.90E+00
4.90E+00
4.93E+00
4.91E+00
4.91E+00
4.91E+00
4.92E+00
4.91E+00
4.92E+00
4.94E+00
4.94E+00
4.95E+00
4.95E+00
4.94E+00
4.95E+00
4.96E+00
4.97E+00
4.97E+00
4.96E+00
4.97E+00
4.97E+00
4.97E+00
4.98E+00
4.98E+00
4.97E+00
4.96E+00
4.95E+00
4.98E+00
4.99E+00
4.99E+00
4.97E+00
4.96E+00
4.97E+00
4.96E+00
4.95E+00
4.95E+00
4.94E+00
4.92E+00
4.93E+00
4.92E+00
4.92E+00
4.92E+00
4.91E+00
4.90E+00
4.90E+00
4.90E+00
4.91E+00
4.89E+00
4.89E+00
4.87E+00
4.87E+00
4.88E+00
4.88E+00
4.87E+00
4.86E+00
4.84E+00
4.85E+00
4.86E+00
4.87E+00
4.87E+00
4.86E+00
4.84E+00
4.85E+00
4.86E+00
4.86E+00
4.85E+00
4.84E+00
4.83E+00
4.84E+00
4.86E+00
4.87E+00
4.86E+00
4.86E+00
4.85E+00
4.84E+00
4.85E+00
4.87E+00
4.86E+00
4.84E+00
4.84E+00
4.83E+00
4.84E+00
4.85E+00
4.85E+00
4.85E+00
4.84E+00
4.85E+00
4.85E+00
4.85E+00
4.85E+00
4.82E+00
4.83E+00
4.83E+00
4.84E+00
4.84E+00
4.82E+00
4.80E+00
4.80E+00
4.81E+00
4.83E+00
4.82E+00
4.81E+00
4.82E+00
4.80E+00
4.80E+00
4.79E+00
4.80E+00
4.80E+00
4.80E+00
4.78E+00
4.80E+00
4.81E+00
4.81E+00
4.81E+00
4.78E+00
4.79E+00
4.79E+00
4.80E+00
4.80E+00
4.78E+00
4.78E+00
4.77E+00
4.77E+00
4.79E+00
4.80E+00
4.82E+00
4.79E+00
4.78E+00
4.80E+00
4.82E+00
4.82E+00
4.81E+00
4.80E+00
4.80E+00
4.79E+00
4.81E+00
4.83E+00
4.82E+00
4.80E+00
4.78E+00
4.81E+00
4.81E+00
4.81E+00
4.81E+00
4.82E+00
4.81E+00
4.81E+00
4.82E+00
4.83E+00
4.82E+00
4.82E+00
4.80E+00
4.81E+00
4.81E+00
4.83E+00
4.82E+00
4.80E+00
4.80E+00
4.80E+00
4.82E+00
4.83E+00
4.84E+00
4.83E+00
4.81E+00
4.82E+00
4.84E+00
4.84E+00
4.84E+00
4.83E+00
4.81E+00
4.84E+00
4.84E+00
4.86E+00
4.85E+00
4.84E+00
4.84E+00
4.84E+00
4.85E+00
4.86E+00
4.86E+00
4.86E+00
4.87E+00
4.87E+00
4.91E+00
4.91E+00
4.91E+00
4.90E+00
4.90E+00
4.92E+00
4.93E+00
4.95E+00
4.98E+00
4.99E+00
5.00E+00
5.02E+00
5.04E+00
5.06E+00
5.06E+00
5.06E+00
5.05E+00
5.06E+00
5.09E+00
5.11E+00
5.09E+00
5.09E+00
5.06E+00
5.01E+00
4.98E+00
4.94E+00
4.92E+00
4.87E+00
4.82E+00
4.81E+00
4.81E+00
4.82E+00
4.82E+00
4.81E+00
4.81E+00
4.82E+00
4.83E+00
4.82E+00
4.81E+00
4.80E+00
4.80E+00
4.80E+00
4.82E+00
4.81E+00
4.80E+00
4.80E+00
4.81E+00
4.82E+00
4.83E+00
4.84E+00
4.82E+00
4.80E+00
4.81E+00
4.83E+00
4.83E+00
4.83E+00
4.82E+00
4.81E+00
4.80E+00
4.82E+00
4.83E+00
4.83E+00
4.81E+00
4.81E+00
4.80E+00
4.83E+00
4.84E+00
4.83E+00
4.80E+00
4.79E+00
4.81E+00
4.84E+00
4.85E+00
4.87E+00
4.85E+00
4.77E+00
4.69E+00
4.63E+00
4.61E+00
4.61E+00
4.61E+00
4.59E+00
4.54E+00
4.50E+00
4.47E+00
4.45E+00
4.40E+00
4.36E+00
4.29E+00
4.27E+00
4.24E+00
4.25E+00
4.24E+00
4.26E+00
4.28E+00
4.34E+00
4.36E+00
4.42E+00
4.49E+00
4.59E+00
4.62E+00
4.68E+00
4.72E+00
4.77E+00
4.82E+00
4.87E+00
4.87E+00
4.90E+00
4.91E+00
4.91E+00
4.92E+00
4.90E+00
4.89E+00
4.91E+00
4.92E+00
4.94E+00
4.94E+00
4.92E+00
4.92E+00
4.93E+00
4.93E+00
4.95E+00
4.95E+00
4.95E+00
4.94E+00
4.95E+00
4.96E+00
4.95E+00
4.96E+00
4.96E+00
4.94E+00
4.94E+00
4.94E+00
4.96E+00
4.96E+00
4.97E+00
4.95E+00
4.96E+00
4.96E+00
4.98E+00
4.98E+00
4.98E+00
4.98E+00
5.00E+00
5.01E+00
5.01E+00
5.02E+00
5.00E+00
5.00E+00
5.01E+00
5.03E+00
5.04E+00
5.04E+00
5.03E+00
5.04E+00
5.05E+00
5.07E+00
5.07E+00
5.07E+00
5.05E+00
5.05E+00
5.08E+00
5.08E+00
5.08E+00
5.07E+00
5.08E+00
5.09E+00
5.09E+00
5.11E+00
5.11E+00
5.11E+00
5.09E+00
5.07E+00
5.07E+00
5.08E+00
5.09E+00
5.07E+00
5.06E+00
5.04E+00
5.04E+00
5.06E+00
5.05E+00
5.04E+00
5.03E+00
5.01E+00
4.99E+00
4.99E+00
4.99E+00
4.97E+00
4.97E+00
4.93E+00
4.95E+00
4.96E+00
4.97E+00
4.96E+00
4.95E+00
4.94E+00
4.94E+00
4.94E+00
4.94E+00
4.93E+00
4.93E+00
4.95E+00
4.93E+00
4.93E+00
4.93E+00
4.93E+00
4.92E+00
4.92E+00
4.92E+00
4.93E+00
4.94E+00
4.94E+00
4.93E+00
4.91E+00
4.91E+00
4.92E+00
4.93E+00
4.91E+00
4.91E+00
4.88E+00
4.90E+00
4.91E+00
4.91E+00
4.91E+00
4.90E+00
4.87E+00
4.89E+00
4.90E+00
4.90E+00
4.90E+00
4.89E+00
4.87E+00
4.88E+00
4.88E+00
4.88E+00
4.88E+00
4.87E+00
4.87E+00
4.89E+00
4.90E+00
4.88E+00
4.85E+00
4.85E+00
4.86E+00
4.87E+00
4.88E+00
4.87E+00
4.85E+00
4.82E+00
4.77E+00
4.73E+00
4.71E+00
4.70E+00
4.67E+00
4.66E+00
4.67E+00
4.70E+00
4.73E+00
4.77E+00
4.83E+00
4.90E+00
4.94E+00
5.00E+00
5.06E+00
5.11E+00
5.16E+00
5.19E+00
5.25E+00
5.34E+00
5.38E+00
5.31E+00
5.25E+00
5.27E+00
5.33E+00
5.37E+00
5.33E+00
5.24E+00
5.16E+00
5.09E+00
4.98E+00
4.81E+00
4.64E+00
4.54E+00
4.53E+00
4.60E+00
4.70E+00
4.80E+00
4.84E+00
4.83E+00
4.83E+00
4.81E+00
4.79E+00
4.78E+00
4.80E+00
4.80E+00
4.81E+00
4.79E+00
4.78E+00
4.80E+00
4.79E+00
4.79E+00
4.78E+00
4.79E+00
4.78E+00
4.78E+00
4.79E+00
4.80E+00
4.80E+00
4.78E+00
4.76E+00
4.77E+00
4.78E+00
4.78E+00
4.78E+00
4.76E+00
4.76E+00
4.74E+00
4.76E+00
4.77E+00
4.76E+00
4.75E+00
4.76E+00
4.75E+00
4.78E+00
4.76E+00
4.76E+00
4.76E+00
4.77E+00
4.77E+00
4.79E+00
4.81E+00
4.82E+00
4.82E+00
4.81E+00
4.82E+00
4.84E+00
4.84E+00
4.85E+00
4.85E+00
4.88E+00
4.91E+00
4.94E+00
4.93E+00
4.94E+00
4.94E+00
4.95E+00
4.95E+00
4.95E+00
4.96E+00
4.96E+00
4.97E+00
4.99E+00
5.00E+00
5.00E+00
4.96E+00
4.91E+00
4.86E+00
4.82E+00
4.81E+00
4.78E+00
4.75E+00
4.70E+00
4.68E+00
4.67E+00
4.70E+00
4.70E+00
4.72E+00
4.71E+00
4.70E+00
4.70E+00
4.70E+00
4.71E+00
4.73E+00
4.73E+00
4.72E+00
4.72E+00
4.73E+00
4.74E+00
4.74E+00
4.74E+00
4.75E+00
4.76E+00
4.76E+00
4.78E+00
4.79E+00
4.79E+00
4.78E+00
4.77E+00
4.78E+00
4.79E+00
4.81E+00
4.80E+00
4.80E+00
4.81E+00
4.80E+00
4.80E+00
4.80E+00
4.81E+00
4.82E+00
4.80E+00
4.81E+00
4.81E+00
4.81E+00
4.81E+00
4.81E+00
4.79E+00
4.80E+00
4.80E+00
4.81E+00
4.80E+00
4.79E+00
4.79E+00
4.80E+00
4.82E+00
4.82E+00
4.83E+00
4.81E+00
4.80E+00
4.81E+00
4.82E+00
4.81E+00
4.81E+00
4.81E+00
4.81E+00
4.82E+00
4.84E+00
4.85E+00
4.84E+00
4.83E+00
4.83E+00
4.82E+00
4.84E+00
4.85E+00
4.84E+00
4.83E+00
4.83E+00
4.84E+00
4.84E+00
4.84E+00
4.86E+00
4.87E+00
4.85E+00
4.84E+00
4.86E+00
4.88E+00
4.86E+00
4.85E+00
4.86E+00
4.87E+00
4.89E+00
4.90E+00
4.88E+00
4.87E+00
4.86E+00
4.88E+00
4.88E+00
4.90E+00
4.88E+00
4.89E+00
4.89E+00
4.90E+00
4.89E+00
4.87E+00
4.86E+00
4.86E+00
4.87E+00
4.89E+00
4.91E+00
4.91E+00
4.90E+00
4.88E+00
4.86E+00
4.88E+00
4.88E+00
4.89E+00
4.89E+00
4.90E+00
4.90E+00
4.89E+00
4.89E+00
4.89E+00
4.89E+00
4.88E+00
4.87E+00
4.88E+00
4.89E+00
4.89E+00
4.89E+00
4.89E+00
4.87E+00
4.90E+00
4.89E+00
4.91E+00
4.92E+00
4.91E+00
4.90E+00
4.90E+00
4.93E+00
4.93E+00
4.92E+00
4.92E+00
4.92E+00
4.92E+00
4.92E+00
4.93E+00
4.93E+00
4.93E+00
4.92E+00
4.91E+00
4.91E+00
4.93E+00
4.93E+00
4.92E+00
4.92E+00
4.92E+00
4.93E+00
4.94E+00
4.93E+00
4.94E+00
4.93E+00
4.92E+00
4.92E+00
4.93E+00
4.93E+00
4.94E+00
4.92E+00
4.92E+00
4.92E+00
4.93E+00
4.92E+00
4.92E+00
4.90E+00
4.91E+00
4.93E+00
4.94E+00
4.97E+00
4.97E+00
4.95E+00
4.94E+00
4.94E+00
4.96E+00
4.94E+00
4.92E+00
4.92E+00
4.93E+00
4.93E+00
4.93E+00
4.94E+00
4.94E+00
4.93E+00
4.93E+00
4.93E+00
4.93E+00
4.93E+00
4.93E+00
4.93E+00
4.95E+00
4.95E+00
4.95E+00
4.93E+00
4.93E+00
4.93E+00
4.93E+00
4.93E+00
4.94E+00
4.94E+00
4.93E+00
4.93E+00
4.94E+00
4.94E+00
4.94E+00
4.95E+00
4.94E+00
4.94E+00
4.95E+00
4.95E+00
4.96E+00
4.94E+00
4.94E+00
4.91E+00
4.92E+00
4.94E+00
4.94E+00
4.94E+00
4.93E+00
4.94E+00
4.94E+00
4.95E+00
4.95E+00
4.95E+00
4.94E+00
4.94E+00
4.95E+00
4.94E+00
4.92E+00
4.94E+00
4.92E+00
4.93E+00
4.94E+00
4.94E+00
4.95E+00
4.95E+00
4.94E+00
4.94E+00
4.96E+00
4.96E+00
4.95E+00
4.93E+00
4.93E+00
4.93E+00
4.93E+00
4.95E+00
4.95E+00
4.95E+00
4.94E+00
4.92E+00
4.93E+00
4.95E+00
4.95E+00
4.96E+00
4.95E+00
4.93E+00
4.94E+00
4.95E+00
4.95E+00
4.95E+00
4.95E+00
4.93E+00
4.92E+00
4.93E+00
4.95E+00
4.93E+00
4.93E+00
4.93E+00
4.94E+00
4.94E+00
4.96E+00
4.95E+00
4.94E+00
4.94E+00
4.95E+00
4.95E+00
4.96E+00
4.96E+00
4.95E+00
4.94E+00
4.94E+00
4.94E+00
4.96E+00
4.95E+00
4.93E+00
4.94E+00
4.94E+00
4.95E+00
4.95E+00
4.95E+00
4.95E+00
4.95E+00
4.96E+00
4.96E+00
4.95E+00
4.94E+00
4.93E+00
4.94E+00
4.94E+00
4.95E+00
4.95E+00
4.96E+00
4.94E+00
4.95E+00
4.96E+00
4.95E+00
4.97E+00
4.95E+00
4.93E+00
4.93E+00
4.95E+00
4.98E+00
5.02E+00
5.01E+00
5.00E+00
5.01E+00
5.02E+00
5.04E+00
5.05E+00
5.06E+00
5.07E+00
5.08E+00
5.10E+00
5.13E+00
5.14E+00
5.15E+00
5.15E+00
5.15E+00
5.16E+00
5.17E+00
5.19E+00
5.19E+00
5.19E+00
5.19E+00
5.20E+00
5.16E+00
5.12E+00
5.07E+00
5.01E+00
4.98E+00
4.94E+00
4.92E+00
4.91E+00
4.90E+00
4.89E+00
4.90E+00
4.91E+00
4.92E+00
4.92E+00
4.90E+00
4.90E+00
4.88E+00
4.89E+00
4.90E+00
4.92E+00
4.91E+00
4.89E+00
4.88E+00
4.88E+00
4.91E+00
4.90E+00
4.89E+00
4.88E+00
4.88E+00
4.89E+00
4.91E+00
4.91E+00
4.90E+00
4.90E+00
4.89E+00
4.90E+00
4.90E+00
4.92E+00
4.91E+00
4.91E+00
4.89E+00
4.88E+00
4.90E+00
4.92E+00
4.94E+00
4.95E+00
4.93E+00
4.95E+00
4.93E+00
4.86E+00
4.77E+00
4.71E+00
4.70E+00
4.70E+00
4.69E+00
4.68E+00
4.64E+00
4.58E+00
4.55E+00
4.53E+00
4.49E+00
4.46E+00
4.44E+00
4.41E+00
4.38E+00
4.37E+00
4.36E+00
4.34E+00
4.34E+00
4.36E+00
4.38E+00
4.40E+00
4.40E+00
4.44E+00
4.53E+00
4.63E+00
4.69E+00
4.74E+00
4.76E+00
4.77E+00
4.82E+00
4.86E+00
4.91E+00
4.93E+00
4.95E+00
4.97E+00
5.00E+00
4.98E+00
4.96E+00
4.96E+00
4.97E+00
4.98E+00
4.99E+00
5.00E+00
4.99E+00
4.99E+00
5.00E+00
5.00E+00
4.99E+00
5.00E+00
4.99E+00
5.00E+00
5.00E+00
5.00E+00
4.99E+00
4.99E+00
4.98E+00
4.99E+00
4.99E+00
4.99E+00
5.00E+00
4.99E+00
4.98E+00
4.98E+00
5.00E+00
5.01E+00
5.00E+00
4.98E+00
4.98E+00
4.99E+00
4.99E+00
4.99E+00
5.00E+00
5.00E+00
5.01E+00
5.02E+00
5.04E+00
5.05E+00
5.05E+00
5.05E+00
5.04E+00
5.03E+00
5.04E+00
5.06E+00
5.06E+00
5.05E+00
5.05E+00
5.04E+00
5.03E+00
5.04E+00
5.05E+00
5.07E+00
5.08E+00
5.07E+00
5.07E+00
5.08E+00
5.08E+00
5.08E+00
5.08E+00
5.09E+00
5.10E+00
5.10E+00
5.08E+00
5.08E+00
5.07E+00
5.08E+00
5.10E+00
5.10E+00
5.10E+00
5.08E+00
5.08E+00
5.06E+00
5.08E+00
5.08E+00
5.07E+00
5.07E+00
5.07E+00
5.08E+00
5.09E+00
5.08E+00
5.07E+00
5.06E+00
5.05E+00
5.07E+00
5.07E+00
5.07E+00
5.06E+00
5.05E+00
5.06E+00
5.05E+00
5.05E+00
5.05E+00
5.03E+00
5.03E+00
5.01E+00
5.02E+00
5.04E+00
5.03E+00
5.02E+00
5.01E+00
4.99E+00
5.01E+00
5.00E+00
5.02E+00
5.01E+00
5.01E+00
5.01E+00
5.01E+00
5.02E+00
5.01E+00
5.00E+00
5.00E+00
4.98E+00
4.99E+00
5.01E+00
5.01E+00
5.00E+00
4.99E+00
5.00E+00
5.00E+00
5.01E+00
5.00E+00
4.99E+00
4.98E+00
4.97E+00
4.98E+00
4.99E+00
5.00E+00
5.00E+00
4.99E+00
4.98E+00
4.98E+00
5.00E+00
5.01E+00
4.99E+00
4.98E+00
4.98E+00
4.99E+00
5.00E+00
4.99E+00
4.97E+00
4.97E+00
4.97E+00
4.99E+00
4.99E+00
4.98E+00
4.97E+00
4.96E+00
4.96E+00
4.94E+00
4.95E+00
4.95E+00
4.94E+00
4.93E+00
4.92E+00
4.91E+00
4.90E+00
4.90E+00
4.90E+00
4.90E+00
4.91E+00
4.91E+00
4.91E+00
4.90E+00
4.89E+00
4.88E+00
4.87E+00
4.89E+00
4.90E+00
4.90E+00
4.91E+00
4.89E+00
4.86E+00
4.87E+00
4.88E+00
4.88E+00
4.88E+00
4.87E+00
4.88E+00
4.91E+00
4.91E+00
4.91E+00
4.91E+00
4.90E+00
4.89E+00
4.90E+00
4.91E+00
4.93E+00
4.94E+00
4.94E+00
4.94E+00
4.95E+00
4.95E+00
4.94E+00
4.93E+00
4.92E+00
4.92E+00
4.92E+00
4.93E+00
4.92E+00
4.93E+00
4.94E+00
4.94E+00
4.93E+00
4.94E+00
4.94E+00
4.94E+00
4.94E+00
4.95E+00
4.96E+00
4.96E+00
4.94E+00
4.95E+00
4.94E+00
4.93E+00
4.95E+00
4.96E+00
4.97E+00
4.96E+00
4.94E+00
4.93E+00
4.95E+00
4.95E+00
4.96E+00
4.95E+00
4.95E+00
4.94E+00
4.95E+00
4.96E+00
4.95E+00
4.95E+00
4.95E+00
4.94E+00
4.94E+00
4.94E+00
4.95E+00
4.96E+00
4.98E+00
4.98E+00
4.98E+00
4.98E+00
4.98E+00
4.97E+00
4.96E+00
4.97E+00
4.98E+00
5.02E+00
5.00E+00
5.01E+00
5.02E+00
5.02E+00
5.04E+00
5.04E+00
5.05E+00
5.06E+00
5.07E+00
5.07E+00
5.09E+00
5.11E+00
5.13E+00
5.18E+00
5.18E+00
5.18E+00
5.18E+00
5.18E+00
5.17E+00
5.18E+00
5.17E+00
5.16E+00
5.16E+00
5.16E+00
5.17E+00
5.14E+00
5.10E+00
5.06E+00
5.02E+00
4.98E+00
4.95E+00
4.90E+00
4.88E+00
4.89E+00
4.92E+00
4.94E+00
4.94E+00
4.93E+00
4.92E+00
4.91E+00
4.92E+00
4.93E+00
4.93E+00
4.92E+00
4.91E+00
4.91E+00
4.93E+00
4.93E+00
4.92E+00
4.92E+00
4.90E+00
4.91E+00
4.91E+00
4.91E+00
4.92E+00
4.90E+00
4.90E+00
4.90E+00
4.91E+00
4.91E+00
4.91E+00
4.91E+00
4.92E+00
4.94E+00
4.93E+00
4.93E+00
4.92E+00
4.92E+00
4.91E+00
4.92E+00
4.91E+00
4.89E+00
4.87E+00
4.87E+00
4.90E+00
4.93E+00
4.96E+00
4.96E+00
4.95E+00
4.91E+00
4.83E+00
4.75E+00
4.72E+00
4.69E+00
4.70E+00
4.70E+00
4.68E+00
4.65E+00
4.61E+00
4.57E+00
4.55E+00
4.50E+00
4.48E+00
4.44E+00
4.44E+00
4.41E+00
4.37E+00
4.33E+00
4.30E+00
4.29E+00
4.32E+00
4.37E+00
4.40E+00
4.41E+00
4.44E+00
4.51E+00
4.60E+00
4.68E+00
4.73E+00
4.75E+00
4.79E+00
4.82E+00
4.88E+00
4.93E+00
4.95E+00
4.97E+00
4.98E+00
4.98E+00
4.99E+00
5.00E+00
5.02E+00
5.01E+00
5.00E+00
4.99E+00
4.99E+00
5.00E+00
5.00E+00
5.00E+00
5.01E+00
5.01E+00
5.03E+00
5.04E+00
5.04E+00
5.03E+00
5.02E+00
5.01E+00
5.02E+00
5.05E+00
5.04E+00
5.03E+00
5.02E+00
5.02E+00
5.03E+00
5.03E+00
5.03E+00
5.03E+00
5.03E+00
5.03E+00
5.05E+00
5.05E+00
5.04E+00
5.03E+00
5.01E+00
5.01E+00
5.04E+00
5.07E+00
5.08E+00
5.07E+00
5.07E+00
5.07E+00
5.06E+00
5.08E+00
5.09E+00
5.09E+00
5.09E+00
5.08E+00
5.10E+00
5.12E+00
5.12E+00
5.12E+00
5.10E+00
5.11E+00
5.13E+00
5.14E+00
5.13E+00
5.13E+00
5.12E+00
5.12E+00
5.13E+00
5.14E+00
5.15E+00
5.14E+00
5.14E+00
5.13E+00
5.14E+00
5.16E+00
5.17E+00
5.16E+00
5.16E+00
5.15E+00
5.15E+00
5.17E+00
5.16E+00
5.16E+00
5.13E+00
5.13E+00
5.15E+00
5.16E+00
5.16E+00
5.15E+00
5.12E+00
5.11E+00
5.12E+00
5.13E+00
5.12E+00
5.10E+00
5.09E+00
5.08E+00
5.08E+00
5.09E+00
5.08E+00
5.07E+00
5.05E+00
5.03E+00
5.04E+00
5.04E+00
5.02E+00
5.01E+00
5.01E+00
5.02E+00
5.03E+00
5.03E+00
5.02E+00
5.01E+00
5.00E+00
4.99E+00
4.99E+00
5.00E+00
5.00E+00
4.99E+00
4.99E+00
4.97E+00
4.97E+00
4.98E+00
4.98E+00
4.96E+00
4.97E+00
4.96E+00
4.98E+00
5.00E+00
4.99E+00
4.98E+00
4.97E+00
4.96E+00
4.97E+00
4.98E+00
4.98E+00
4.98E+00
4.95E+00
4.94E+00
4.96E+00
4.96E+00
4.96E+00
4.94E+00
4.94E+00
4.94E+00
4.95E+00
4.96E+00
4.95E+00
4.94E+00
4.93E+00
4.93E+00
4.94E+00
4.94E+00
4.92E+00
4.93E+00
4.93E+00
4.94E+00
4.93E+00
4.93E+00
4.92E+00
4.91E+00
4.91E+00
4.91E+00
4.91E+00
4.90E+00
4.89E+00
4.90E+00
4.89E+00
4.88E+00
4.89E+00
4.91E+00
4.89E+00
4.90E+00
4.90E+00
4.87E+00
4.88E+00
4.90E+00
4.90E+00
4.90E+00
4.89E+00
4.87E+00
4.89E+00
4.89E+00
4.90E+00
4.89E+00
4.87E+00
4.87E+00
4.89E+00
4.92E+00
4.92E+00
4.92E+00
4.92E+00
4.91E+00
4.91E+00
4.90E+00
4.91E+00
4.91E+00
4.89E+00
4.90E+00
4.91E+00
4.93E+00
4.92E+00
4.90E+00
4.89E+00
4.89E+00
4.92E+00
4.93E+00
4.92E+00
4.91E+00
4.91E+00
4.89E+00
4.90E+00
4.91E+00
4.92E+00
4.92E+00
4.93E+00
4.92E+00
4.94E+00
4.94E+00
4.94E+00
4.93E+00
4.92E+00
4.92E+00
4.93E+00
4.94E+00
4.94E+00
4.94E+00
4.92E+00
4.92E+00
4.93E+00
4.93E+00
4.93E+00
4.93E+00
4.92E+00
4.93E+00
4.92E+00
4.94E+00
4.93E+00
4.94E+00
4.92E+00
4.94E+00
4.93E+00
4.94E+00
4.95E+00
4.94E+00
4.93E+00
4.91E+00
4.92E+00
4.94E+00
4.94E+00
4.93E+00
4.92E+00
4.91E+00
4.92E+00
4.93E+00
4.95E+00
4.93E+00
4.93E+00
4.92E+00
4.91E+00
4.95E+00
4.95E+00
4.95E+00
4.93E+00
4.92E+00
4.92E+00
4.93E+00
4.94E+00
4.95E+00
4.94E+00
4.97E+00
4.99E+00
5.01E+00
5.02E+00
5.01E+00
5.00E+00
5.00E+00
5.02E+00
5.05E+00
5.06E+00
5.07E+00
5.09E+00
5.10E+00
5.12E+00
5.13E+00
5.15E+00
5.14E+00
5.14E+00
5.12E+00
5.13E+00
5.16E+00
5.16E+00
5.16E+00
5.11E+00
5.07E+00
5.04E+00
5.01E+00
4.97E+00
4.94E+00
4.87E+00
4.83E+00
4.83E+00
4.86E+00
4.89E+00
4.88E+00
4.87E+00
4.86E+00
4.87E+00
4.88E+00
4.87E+00
4.86E+00
4.84E+00
4.85E+00
4.88E+00
4.90E+00
4.87E+00
4.85E+00
4.84E+00
4.86E+00
4.87E+00
4.87E+00
4.89E+00
4.87E+00
4.85E+00
4.85E+00
4.87E+00
4.86E+00
4.87E+00
4.86E+00
4.85E+00
4.86E+00
4.87E+00
4.88E+00
4.88E+00
4.87E+00
4.86E+00
4.85E+00
4.84E+00
4.85E+00
4.84E+00
4.80E+00
4.79E+00
4.77E+00
4.79E+00
4.81E+00
4.81E+00
4.81E+00
4.80E+00
4.76E+00
4.67E+00
4.60E+00
4.58E+00
4.58E+00
4.60E+00
4.58E+00
4.58E+00
4.56E+00
4.50E+00
4.44E+00
4.40E+00
4.39E+00
4.38E+00
4.37E+00
4.33E+00
4.27E+00
4.24E+00
4.24E+00
4.23E+00
4.26E+00
4.30E+00
4.36E+00
4.38E+00
4.40E+00
4.46E+00
4.56E+00
4.63E+00
4.68E+00
4.71E+00
4.75E+00
4.80E+00
4.87E+00
4.89E+00
4.91E+00
4.92E+00
4.92E+00
4.94E+00
4.94E+00
4.95E+00
4.94E+00
4.94E+00
4.94E+00
4.96E+00
4.97E+00
4.97E+00
4.96E+00
4.97E+00
4.98E+00
4.97E+00
4.98E+00
4.97E+00
4.97E+00
4.98E+00
4.97E+00
4.98E+00
5.00E+00
4.97E+00
4.97E+00
4.96E+00
4.97E+00
4.99E+00
5.02E+00
5.02E+00
5.00E+00
5.00E+00
4.99E+00
5.00E+00
5.02E+00
5.02E+00
5.02E+00
5.01E+00
5.01E+00
5.02E+00
5.04E+00
5.05E+00
5.03E+00
5.04E+00
5.06E+00
5.07E+00
5.08E+00
5.07E+00
5.06E+00
5.06E+00
5.06E+00
5.09E+00
5.09E+00
5.09E+00
5.10E+00
5.09E+00
5.10E+00
5.11E+00
5.13E+00
5.13E+00
5.12E+00
5.12E+00
5.11E+00
5.13E+00
5.14E+00
5.15E+00
5.14E+00
5.13E+00
5.13E+00
5.14E+00
5.14E+00
5.14E+00
5.13E+00
5.12E+00
5.12E+00
5.12E+00
5.11E+00
5.11E+00
5.09E+00
5.09E+00
5.07E+00
5.07E+00
5.07E+00
5.07E+00
5.05E+00
5.04E+00
5.02E+00
5.02E+00
5.02E+00
5.01E+00
5.02E+00
5.01E+00
5.00E+00
4.99E+00
4.99E+00
4.99E+00
4.98E+00
4.98E+00
4.97E+00
4.98E+00
4.98E+00
4.99E+00
4.98E+00
4.97E+00
4.95E+00
4.96E+00
4.96E+00
4.97E+00
4.97E+00
4.95E+00
4.95E+00
4.95E+00
4.96E+00
4.95E+00
4.95E+00
4.95E+00
4.95E+00
4.95E+00
4.94E+00
4.94E+00
4.94E+00
4.92E+00
4.91E+00
4.93E+00
4.94E+00
4.93E+00
4.92E+00
4.91E+00
4.90E+00
4.91E+00
4.90E+00
4.90E+00
4.90E+00
4.92E+00
4.92E+00
4.91E+00
4.91E+00
4.91E+00
4.89E+00
4.88E+00
4.88E+00
4.88E+00
4.88E+00
4.87E+00
4.88E+00
4.88E+00
4.87E+00
4.87E+00
4.87E+00
4.87E+00
4.85E+00
4.84E+00
4.82E+00
4.84E+00
4.84E+00
4.84E+00
4.83E+00
4.83E+00
4.83E+00
4.83E+00
4.85E+00
4.85E+00
4.85E+00
4.84E+00
4.84E+00
4.84E+00
4.85E+00
4.83E+00
4.83E+00
4.84E+00
4.84E+00
4.85E+00
4.86E+00
4.84E+00
4.84E+00
4.84E+00
4.85E+00
4.85E+00
4.86E+00
4.86E+00
4.86E+00
4.84E+00
4.85E+00
4.86E+00
4.87E+00
4.89E+00
4.86E+00
4.85E+00
4.85E+00
4.85E+00
4.85E+00
4.87E+00
4.88E+00
4.87E+00
4.86E+00
4.87E+00
4.88E+00
4.87E+00
4.86E+00
4.86E+00
4.86E+00
4.85E+00
4.87E+00
4.87E+00
4.86E+00
4.86E+00
4.85E+00
4.87E+00
4.88E+00
4.88E+00
4.87E+00
4.86E+00
4.86E+00
4.88E+00
4.88E+00
4.87E+00
4.85E+00
4.86E+00
4.88E+00
4.89E+00
4.90E+00
4.89E+00
4.88E+00
4.86E+00
4.86E+00
4.86E+00
4.88E+00
4.88E+00
4.87E+00
4.86E+00
4.86E+00
4.87E+00
4.86E+00
4.86E+00
4.86E+00
4.86E+00
4.87E+00
4.88E+00
4.90E+00
4.89E+00
4.88E+00
4.86E+00
4.87E+00
4.88E+00
4.88E+00
4.88E+00
4.87E+00
4.86E+00
4.85E+00
4.88E+00
4.88E+00
4.88E+00
4.89E+00
4.86E+00
4.86E+00
4.88E+00
4.90E+00
4.89E+00
4.89E+00
4.90E+00
4.90E+00
4.93E+00
4.93E+00
4.94E+00
4.94E+00
4.93E+00
4.93E+00
4.98E+00
5.01E+00
5.04E+00
5.05E+00
5.05E+00
5.05E+00
5.06E+00
5.06E+00
5.08E+00
5.09E+00
5.09E+00
5.10E+00
5.11E+00
5.13E+00
5.13E+00
5.09E+00
5.05E+00
4.99E+00
4.95E+00
4.92E+00
4.90E+00
4.85E+00
4.83E+00
4.82E+00
4.82E+00
4.84E+00
4.83E+00
4.82E+00
4.82E+00
4.82E+00
4.84E+00
4.85E+00
4.83E+00
4.83E+00
4.81E+00
4.81E+00
4.81E+00
4.84E+00
4.83E+00
4.83E+00
4.81E+00
4.81E+00
4.82E+00
4.82E+00
4.82E+00
4.82E+00
4.82E+00
4.83E+00
4.81E+00
4.82E+00
4.83E+00
4.83E+00
4.82E+00
4.80E+00
4.81E+00
4.83E+00
4.85E+00
4.84E+00
4.81E+00
4.77E+00
4.76E+00
4.78E+00
4.80E+00
4.81E+00
4.80E+00
4.79E+00
4.78E+00
4.71E+00
4.63E+00
4.59E+00
4.56E+00
4.56E+00
4.56E+00
4.55E+00
4.50E+00
4.43E+00
4.39E+00
4.35E+00
4.35E+00
4.34E+00
4.29E+00
4.23E+00
4.19E+00
4.17E+00
4.18E+00
4.24E+00
4.29E+00
4.32E+00
4.34E+00
4.40E+00
4.51E+00
4.60E+00
4.63E+00
4.65E+00
4.70E+00
4.73E+00
4.80E+00
4.85E+00
4.89E+00
4.89E+00
4.90E+00
4.90E+00
4.92E+00
4.92E+00
4.93E+00
4.92E+00
4.93E+00
4.92E+00
4.93E+00
4.93E+00
4.93E+00
4.92E+00
4.91E+00
4.92E+00
4.94E+00
4.96E+00
4.95E+00
4.94E+00
4.93E+00
4.94E+00
4.96E+00
4.95E+00
4.94E+00
4.95E+00
4.95E+00
4.96E+00
4.95E+00
4.97E+00
4.95E+00
4.96E+00
4.97E+00
4.97E+00
4.98E+00
4.99E+00
4.98E+00
4.97E+00
4.96E+00
4.98E+00
4.99E+00
5.01E+00
5.03E+00
5.02E+00
5.02E+00
5.01E+00
5.01E+00
5.03E+00
5.03E+00
5.03E+00
5.04E+00
5.02E+00
5.03E+00
5.05E+00
5.04E+00
5.05E+00
5.04E+00
5.05E+00
5.05E+00
5.07E+00
5.09E+00
5.10E+00
5.09E+00
5.09E+00
5.11E+00
5.13E+00
5.12E+00
5.11E+00
5.10E+00
5.10E+00
5.11E+00
5.11E+00
5.10E+00
5.09E+00
5.07E+00
5.07E+00
5.09E+00
5.10E+00
5.10E+00
5.08E+00
5.07E+00
5.06E+00
5.06E+00
5.08E+00
5.08E+00
5.07E+00
5.06E+00
5.04E+00
5.04E+00
5.03E+00
5.02E+00
5.00E+00
4.99E+00
4.97E+00
5.00E+00
5.03E+00
5.02E+00
4.99E+00
4.95E+00
4.94E+00
4.96E+00
4.98E+00
4.96E+00
4.94E+00
4.93E+00
4.93E+00
4.93E+00
4.94E+00
4.92E+00
4.92E+00
4.92E+00
4.91E+00
4.91E+00
4.95E+00
4.94E+00
4.93E+00
4.93E+00
4.91E+00
4.92E+00
4.93E+00
4.92E+00
4.91E+00
4.88E+00
4.89E+00
4.92E+00
4.95E+00
4.93E+00
4.92E+00
4.91E+00
4.91E+00
4.90E+00
4.90E+00
4.89E+00
4.89E+00
4.89E+00
4.88E+00
4.86E+00
4.87E+00
4.89E+00
4.92E+00
4.93E+00
4.93E+00
4.90E+00
4.87E+00
4.85E+00
4.84E+00
4.83E+00
4.87E+00
4.89E+00
4.87E+00
4.84E+00
4.84E+00
4.84E+00
4.83E+00
4.86E+00
4.93E+00
4.96E+00
4.93E+00
4.88E+00
4.86E+00
4.86E+00
4.87E+00
4.88E+00
4.85E+00
4.81E+00
4.76E+00
4.78E+00
4.85E+00
4.90E+00
4.91E+00
4.85E+00
4.79E+00
4.79E+00
4.82E+00
4.88E+00
4.92E+00
4.93E+00
4.90E+00
4.88E+00
4.85E+00
4.81E+00
4.82E+00
4.84E+00
4.84E+00
4.84E+00
4.84E+00
4.85E+00
4.85E+00
4.84E+00
4.85E+00
4.92E+00
5.01E+00
5.02E+00
4.96E+00
4.89E+00
4.86E+00
4.89E+00
4.93E+00
4.96E+00
4.94E+00
4.91E+00
4.88E+00
4.90E+00
4.94E+00
4.94E+00
4.92E+00
4.91E+00
4.91E+00
4.89E+00
4.87E+00
4.87E+00
4.88E+00
4.87E+00
4.86E+00
4.88E+00
4.93E+00
5.00E+00
5.03E+00
5.00E+00
4.95E+00
4.91E+00
4.92E+00
4.92E+00
4.92E+00
4.90E+00
4.89E+00
4.90E+00
4.92E+00
4.92E+00
4.91E+00
4.90E+00
4.91E+00
4.93E+00
4.93E+00
4.93E+00
4.93E+00
4.93E+00
4.91E+00
4.90E+00
4.91E+00
4.91E+00
4.91E+00
4.91E+00
4.89E+00
4.90E+00
4.93E+00
4.95E+00
4.94E+00
4.93E+00
4.92E+00
4.94E+00
4.94E+00
4.92E+00
4.91E+00
4.92E+00
4.93E+00
4.92E+00
4.91E+00
4.90E+00
4.92E+00
4.90E+00
4.90E+00
4.90E+00
4.89E+00
4.89E+00
4.92E+00
4.96E+00
4.98E+00
4.97E+00
4.93E+00
4.88E+00
4.85E+00
4.89E+00
4.97E+00
5.00E+00
4.98E+00
4.93E+00
4.92E+00
4.93E+00
4.93E+00
4.90E+00
4.91E+00
4.91E+00
4.92E+00
4.94E+00
4.94E+00
4.92E+00
4.91E+00
4.92E+00
4.98E+00
4.97E+00
4.94E+00
4.93E+00
4.98E+00
5.04E+00
5.08E+00
5.07E+00
5.05E+00
5.03E+00
5.02E+00
5.04E+00
5.05E+00
5.07E+00
5.09E+00
5.11E+00
5.14E+00
5.14E+00
5.14E+00
5.11E+00
5.10E+00
5.12E+00
5.16E+00
5.16E+00
5.16E+00
5.17E+00
5.14E+00
5.11E+00
5.06E+00
5.03E+00
4.99E+00
4.95E+00
4.90E+00
4.88E+00
4.88E+00
4.88E+00
4.89E+00
4.88E+00
4.86E+00
4.85E+00
4.87E+00
4.89E+00
4.89E+00
4.86E+00
4.86E+00
4.86E+00
4.88E+00
4.90E+00
4.90E+00
4.87E+00
4.85E+00
4.87E+00
4.91E+00
4.92E+00
4.90E+00
4.86E+00
4.85E+00
4.86E+00
4.89E+00
4.88E+00
4.84E+00
4.81E+00
4.81E+00
4.84E+00
4.89E+00
4.89E+00
4.86E+00
4.85E+00
4.85E+00
4.89E+00
4.91E+00
4.87E+00
4.81E+00
4.80E+00
4.87E+00
4.97E+00
5.02E+00
5.01E+00
4.96E+00
4.88E+00
4.83E+00
4.80E+00
4.78E+00
4.77E+00
4.80E+00
4.78E+00
4.72E+00
4.66E+00
4.62E+00
4.60E+00
4.55E+00
4.49E+00
4.41E+00
4.37E+00
4.34E+00
4.32E+00
4.34E+00
4.35E+00
4.35E+00
4.39E+00
4.46E+00
4.51E+00
4.55E+00
4.60E+00
4.64E+00
4.69E+00
4.76E+00
4.87E+00
4.94E+00
4.92E+00
4.89E+00
4.88E+00
4.90E+00
4.91E+00
4.90E+00
4.90E+00
4.92E+00
4.95E+00
4.96E+00
4.93E+00
4.90E+00
4.89E+00
4.89E+00
4.92E+00
4.94E+00
4.96E+00
4.96E+00
4.94E+00
4.92E+00
4.91E+00
4.91E+00
4.94E+00
4.94E+00
4.94E+00
4.94E+00
4.93E+00
4.95E+00
4.95E+00
4.96E+00
4.97E+00
4.97E+00
4.99E+00
4.98E+00
4.97E+00
4.97E+00
4.98E+00
4.98E+00
4.99E+00
5.00E+00
4.99E+00
4.99E+00
4.98E+00
4.98E+00
4.97E+00
5.00E+00
5.02E+00
5.00E+00
4.98E+00
4.99E+00
5.05E+00
5.11E+00
5.08E+00
5.04E+00
5.03E+00
5.02E+00
5.04E+00
5.07E+00
5.09E+00
5.07E+00
5.07E+00
5.07E+00
5.08E+00
5.09E+00
5.08E+00
5.07E+00
5.08E+00
5.07E+00
5.07E+00
5.07E+00
5.08E+00
5.07E+00
5.06E+00
5.08E+00
5.09E+00
5.10E+00
5.07E+00
5.01E+00
4.98E+00
5.02E+00
5.06E+00
5.08E+00
5.04E+00
5.01E+00
5.02E+00
5.03E+00
5.00E+00
4.98E+00
4.97E+00
4.98E+00
5.01E+00
5.01E+00
5.00E+00
4.99E+00
4.97E+00
4.95E+00
4.94E+00
4.94E+00
4.92E+00
4.93E+00
4.93E+00
4.95E+00
4.96E+00
4.94E+00
4.91E+00
4.89E+00
4.89E+00
4.90E+00
4.93E+00
4.95E+00
4.97E+00
4.97E+00
4.96E+00
4.94E+00
4.93E+00
4.94E+00
4.93E+00
4.93E+00
4.93E+00
4.91E+00
4.89E+00
4.88E+00
4.88E+00
4.89E+00
4.88E+00
4.88E+00
4.89E+00
4.88E+00
4.90E+00
4.94E+00
4.97E+00
4.95E+00
4.92E+00
4.92E+00
4.92E+00
4.92E+00
4.88E+00
4.85E+00
4.85E+00
4.87E+00
4.90E+00
4.91E+00
4.89E+00
4.86E+00
4.85E+00
4.84E+00
4.83E+00
4.84E+00
4.86E+00
4.86E+00
4.83E+00
4.82E+00
4.82E+00
4.83E+00
4.83E+00
4.83E+00
4.79E+00
4.80E+00
4.80E+00
4.82E+00
4.83E+00
4.82E+00
4.80E+00
4.79E+00
4.82E+00
4.81E+00
4.81E+00
4.79E+00
4.76E+00
4.77E+00
4.80E+00
4.82E+00
4.82E+00
4.82E+00
4.83E+00
4.81E+00
4.81E+00
4.82E+00
4.84E+00
4.85E+00
4.85E+00
4.84E+00
4.82E+00
4.81E+00
4.82E+00
4.87E+00
4.89E+00
4.88E+00
4.84E+00
4.82E+00
4.82E+00
4.83E+00
4.84E+00
4.84E+00
4.84E+00
4.85E+00
4.86E+00
4.86E+00
4.84E+00
4.80E+00
4.80E+00
4.85E+00
4.89E+00
4.91E+00
4.89E+00
4.87E+00
4.87E+00
4.86E+00
4.84E+00
4.82E+00
4.81E+00
4.83E+00
4.85E+00
4.87E+00
4.87E+00
4.84E+00
4.83E+00
4.85E+00
4.88E+00
4.89E+00
4.85E+00
4.83E+00
4.83E+00
4.84E+00
4.86E+00
4.85E+00
4.84E+00
4.85E+00
4.88E+00
4.89E+00
4.88E+00
4.86E+00
4.86E+00
4.87E+00
4.86E+00
4.86E+00
4.88E+00
4.90E+00
4.89E+00
4.87E+00
4.85E+00
4.84E+00
4.84E+00
4.84E+00
4.83E+00
4.84E+00
4.88E+00
4.90E+00
4.92E+00
4.93E+00
4.90E+00
4.88E+00
4.87E+00
4.86E+00
4.87E+00
4.88E+00
4.88E+00
4.86E+00
4.85E+00
4.85E+00
4.87E+00
4.89E+00
4.92E+00
4.92E+00
4.90E+00
4.90E+00
4.92E+00
4.95E+00
4.94E+00
4.95E+00
4.98E+00
5.04E+00
5.08E+00
5.09E+00
5.07E+00
5.08E+00
5.06E+00
5.05E+00
5.09E+00
5.10E+00
5.11E+00
5.09E+00
5.05E+00
5.04E+00
5.03E+00
5.00E+00
4.96E+00
4.93E+00
4.91E+00
4.86E+00
4.82E+00
4.80E+00
4.82E+00
4.83E+00
4.83E+00
4.82E+00
4.82E+00
4.81E+00
4.82E+00
4.80E+00
4.76E+00
4.77E+00
4.80E+00
4.84E+00
4.85E+00
4.83E+00
4.82E+00
4.80E+00
4.81E+00
4.83E+00
4.82E+00
4.82E+00
4.81E+00
4.82E+00
4.82E+00
4.81E+00
4.82E+00
4.82E+00
4.81E+00
4.77E+00
4.78E+00
4.81E+00
4.84E+00
4.84E+00
4.82E+00
4.81E+00
4.78E+00
4.78E+00
4.78E+00
4.78E+00
4.79E+00
4.82E+00
4.85E+00
4.86E+00
4.76E+00
4.70E+00
4.70E+00
4.70E+00
4.71E+00
4.70E+00
4.65E+00
4.60E+00
4.55E+00
4.51E+00
4.48E+00
4.46E+00
4.42E+00
4.37E+00
4.32E+00
4.26E+00
4.25E+00
4.27E+00
4.28E+00
4.30E+00
4.31E+00
4.37E+00
4.46E+00
4.54E+00
4.57E+00
4.56E+00
4.63E+00
4.71E+00
4.78E+00
4.83E+00
4.84E+00
4.85E+00
4.85E+00
4.87E+00
4.88E+00
4.90E+00
4.89E+00
4.88E+00
4.88E+00
4.88E+00
4.87E+00
4.88E+00
4.89E+00
4.91E+00
4.92E+00
4.91E+00
4.92E+00
4.92E+00
4.91E+00
4.90E+00
4.88E+00
4.88E+00
4.91E+00
4.94E+00
4.93E+00
4.91E+00
4.89E+00
4.90E+00
4.92E+00
4.93E+00
4.92E+00
4.92E+00
4.93E+00
4.91E+00
4.88E+00
4.88E+00
4.94E+00
4.99E+00
4.98E+00
4.96E+00
4.95E+00
4.97E+00
4.97E+00
4.99E+00
5.00E+00
5.01E+00
5.02E+00
5.02E+00
5.01E+00
5.00E+00
4.99E+00
5.01E+00
5.02E+00
5.03E+00
5.03E+00
5.01E+00
5.01E+00
5.00E+00
5.02E+00
5.02E+00
5.01E+00
5.00E+00
5.01E+00
5.01E+00
5.03E+00
5.06E+00
5.10E+00
5.12E+00
5.07E+00
5.05E+00
5.07E+00
5.11E+00
5.11E+00
5.08E+00
5.07E+00
5.06E+00
5.04E+00
5.04E+00
5.06E+00
5.07E+00
5.06E+00
5.05E+00
5.06E+00
5.07E+00
5.05E+00
5.05E+00
5.05E+00
5.03E+00
5.02E+00
5.00E+00
4.99E+00
4.96E+00
4.98E+00
5.00E+00
5.03E+00
5.04E+00
5.00E+00
4.96E+00
4.96E+00
4.97E+00
4.98E+00
4.98E+00
4.96E+00
4.93E+00
4.91E+00
4.91E+00
4.95E+00
4.97E+00
4.97E+00
4.93E+00
4.90E+00
4.90E+00
4.92E+00
4.95E+00
4.94E+00
4.94E+00
4.92E+00
4.91E+00
4.91E+00
4.93E+00
4.94E+00
4.93E+00
4.91E+00
4.91E+00
4.91E+00
4.92E+00
4.93E+00
4.92E+00
4.91E+00
4.90E+00
4.90E+00
4.90E+00
4.93E+00
4.92E+00
4.91E+00
4.89E+00
4.90E+00
4.91E+00
4.92E+00
4.90E+00
4.87E+00
4.87E+00
4.87E+00
4.88E+00
4.89E+00
4.88E+00
4.87E+00
4.88E+00
4.88E+00
4.87E+00
4.85E+00
4.82E+00
4.83E+00
4.86E+00
4.87E+00
4.88E+00
4.86E+00
4.83E+00
4.82E+00
4.82E+00
4.86E+00
4.86E+00
4.83E+00
4.81E+00
4.83E+00
4.86E+00
4.88E+00
4.85E+00
4.85E+00
4.84E+00
4.80E+00
4.80E+00
4.83E+00
4.85E+00
4.85E+00
4.85E+00
4.82E+00
4.81E+00
4.82E+00
4.84E+00
4.85E+00
4.83E+00
4.81E+00
4.83E+00
4.87E+00
4.87E+00
4.86E+00
4.84E+00
4.82E+00
4.81E+00
4.83E+00
4.86E+00
4.89E+00
4.88E+00
4.88E+00
4.86E+00
4.87E+00
4.85E+00
4.84E+00
4.84E+00
4.84E+00
4.88E+00
4.90E+00
4.89E+00
4.86E+00
4.85E+00
4.86E+00
4.88E+00
4.88E+00
4.88E+00
4.87E+00
4.89E+00
4.89E+00
4.88E+00
4.88E+00
4.88E+00
4.86E+00
4.85E+00
4.85E+00
4.88E+00
4.88E+00
4.88E+00
4.89E+00
4.88E+00
4.86E+00
4.85E+00
4.82E+00
4.84E+00
4.86E+00
4.88E+00
4.85E+00
4.82E+00
4.83E+00
4.88E+00
4.91E+00
4.87E+00
4.82E+00
4.81E+00
4.87E+00
4.91E+00
4.92E+00
4.90E+00
4.90E+00
4.91E+00
4.90E+00
4.89E+00
4.88E+00
4.88E+00
4.88E+00
4.87E+00
4.88E+00
4.88E+00
4.89E+00
4.89E+00
4.88E+00
4.89E+00
4.88E+00
4.88E+00
4.89E+00
4.88E+00
4.86E+00
4.84E+00
4.84E+00
4.87E+00
4.89E+00
4.90E+00
4.90E+00
4.86E+00
4.83E+00
4.85E+00
4.92E+00
4.96E+00
4.93E+00
4.90E+00
4.86E+00
4.86E+00
4.89E+00
4.91E+00
4.91E+00
4.90E+00
4.88E+00
4.89E+00
4.90E+00
4.90E+00
4.88E+00
4.87E+00
4.88E+00
4.92E+00
4.93E+00
4.91E+00
4.90E+00
4.92E+00
4.95E+00
4.97E+00
4.98E+00
4.96E+00
4.94E+00
4.92E+00
4.90E+00
4.90E+00
4.95E+00
5.01E+00
5.07E+00
5.10E+00
5.08E+00
5.09E+00
5.13E+00
5.14E+00
5.13E+00
5.12E+00
5.11E+00
5.11E+00
5.13E+00
5.12E+00
5.09E+00
5.09E+00
5.08E+00
5.09E+00
5.06E+00
5.00E+00
4.98E+00
4.95E+00
4.93E+00
4.87E+00
4.84E+00
4.80E+00
4.78E+00
4.80E+00
4.84E+00
4.92E+00
4.93E+00
4.89E+00
4.85E+00
4.85E+00
4.85E+00
4.84E+00
4.82E+00
4.82E+00
4.82E+00
4.84E+00
4.86E+00
4.90E+00
4.89E+00
4.87E+00
4.81E+00
4.80E+00
4.83E+00
4.87E+00
4.88E+00
4.88E+00
4.87E+00
4.88E+00
4.90E+00
4.88E+00
4.89E+00
4.86E+00
4.84E+00
4.82E+00
4.82E+00
4.85E+00
4.89E+00
4.88E+00
4.83E+00
4.79E+00
4.80E+00
4.82E+00
4.81E+00
4.79E+00
4.78E+00
4.78E+00
4.78E+00
4.79E+00
4.77E+00
4.75E+00
4.72E+00
4.71E+00
4.73E+00
4.72E+00
4.68E+00
4.64E+00
4.65E+00
4.66E+00
4.65E+00
4.60E+00
4.58E+00
4.54E+00
4.47E+00
4.47E+00
4.47E+00
4.42E+00
4.36E+00
4.30E+00
4.25E+00
4.24E+00
4.26E+00
4.28E+00
4.33E+00
4.35E+00
4.36E+00
4.38E+00
4.47E+00
4.56E+00
4.62E+00
4.67E+00
4.71E+00
4.75E+00
4.79E+00
4.84E+00
4.86E+00
4.87E+00
4.87E+00
4.88E+00
4.88E+00
4.90E+00
4.91E+00
4.90E+00
4.93E+00
4.96E+00
4.96E+00
4.94E+00
4.94E+00
4.92E+00
4.90E+00
4.90E+00
4.94E+00
4.95E+00
4.92E+00
4.91E+00
4.92E+00
4.95E+00
4.98E+00
4.94E+00
4.89E+00
4.89E+00
4.95E+00
4.99E+00
4.95E+00
4.92E+00
4.92E+00
4.94E+00
4.95E+00
4.97E+00
5.00E+00
4.99E+00
4.99E+00
4.97E+00
4.97E+00
4.97E+00
4.97E+00
4.98E+00
4.99E+00
4.98E+00
4.98E+00
5.00E+00
5.01E+00
5.02E+00
5.03E+00
5.03E+00
5.03E+00
5.05E+00
5.05E+00
5.06E+00
5.05E+00
5.07E+00
5.07E+00
5.06E+00
5.06E+00
5.08E+00
5.08E+00
5.07E+00
5.07E+00
5.09E+00
5.09E+00
5.08E+00
5.08E+00
5.06E+00
5.05E+00
5.08E+00
5.09E+00
5.10E+00
5.10E+00
5.07E+00
5.06E+00
5.08E+00
5.09E+00
5.10E+00
5.09E+00
5.08E+00
5.06E+00
5.04E+00
5.02E+00
5.02E+00
5.04E+00
5.02E+00
4.98E+00
5.01E+00
5.05E+00
5.06E+00
5.03E+00
5.01E+00
4.97E+00
4.97E+00
4.99E+00
5.00E+00
5.00E+00
4.99E+00
4.97E+00
4.95E+00
4.96E+00
4.96E+00
4.95E+00
4.94E+00
4.92E+00
4.91E+00
4.92E+00
4.94E+00
4.95E+00
4.94E+00
4.92E+00
4.91E+00
4.91E+00
4.92E+00
4.92E+00
4.91E+00
4.89E+00
4.90E+00
4.91E+00
4.92E+00
4.91E+00
4.90E+00
4.88E+00
4.88E+00
4.89E+00
4.91E+00
4.91E+00
4.90E+00
4.88E+00
4.87E+00
4.88E+00
4.89E+00
4.90E+00
4.89E+00
4.88E+00
4.88E+00
4.90E+00
4.89E+00
4.89E+00
4.88E+00
4.87E+00
4.87E+00
4.86E+00
4.87E+00
4.85E+00
4.85E+00
4.87E+00
4.88E+00
4.87E+00
4.88E+00
4.87E+00
4.85E+00
4.83E+00
4.82E+00
4.81E+00
4.83E+00
4.84E+00
4.84E+00
4.83E+00
4.82E+00
4.83E+00
4.85E+00
4.85E+00
4.85E+00
4.84E+00
4.83E+00
4.84E+00
4.82E+00
4.81E+00
4.79E+00
4.80E+00
4.84E+00
4.87E+00
4.85E+00
4.84E+00
4.82E+00
4.82E+00
4.82E+00
4.83E+00
4.83E+00
4.82E+00
4.81E+00
4.78E+00
4.79E+00
4.85E+00
4.87E+00
4.86E+00
4.85E+00
4.83E+00
4.83E+00
4.83E+00
4.85E+00
4.84E+00
4.83E+00
4.83E+00
4.83E+00
4.83E+00
4.85E+00
4.85E+00
4.85E+00
4.84E+00
4.85E+00
4.86E+00
4.86E+00
4.84E+00
4.83E+00
4.83E+00
4.85E+00
4.86E+00
4.87E+00
4.85E+00
4.84E+00
4.82E+00
4.81E+00
4.83E+00
4.85E+00
4.86E+00
4.87E+00
4.85E+00
4.83E+00
4.85E+00
4.86E+00
4.83E+00
4.81E+00
4.83E+00
4.86E+00
4.86E+00
4.87E+00
4.87E+00
4.86E+00
4.86E+00
4.84E+00
4.85E+00
4.86E+00
4.84E+00
4.84E+00
4.84E+00
4.84E+00
4.85E+00
4.85E+00
4.85E+00
4.85E+00
4.84E+00
4.84E+00
4.85E+00
4.87E+00
4.87E+00
4.85E+00
4.84E+00
4.84E+00
4.84E+00
4.84E+00
4.85E+00
4.85E+00
4.85E+00
4.85E+00
4.86E+00
4.87E+00
4.87E+00
4.87E+00
4.85E+00
4.85E+00
4.85E+00
4.85E+00
4.87E+00
4.88E+00
4.87E+00
4.86E+00
4.86E+00
4.87E+00
4.84E+00
4.85E+00
4.84E+00
4.85E+00
4.87E+00
4.87E+00
4.87E+00
4.85E+00
4.84E+00
4.85E+00
4.86E+00
4.87E+00
4.87E+00
4.86E+00
4.85E+00
4.85E+00
4.86E+00
4.86E+00
4.87E+00
4.86E+00
4.86E+00
4.88E+00
4.90E+00
4.93E+00
4.92E+00
4.91E+00
4.92E+00
4.93E+00
4.94E+00
4.93E+00
4.95E+00
4.98E+00
5.00E+00
5.02E+00
5.06E+00
5.08E+00
5.08E+00
5.06E+00
5.03E+00
5.03E+00
5.08E+00
5.11E+00
5.12E+00
5.10E+00
5.08E+00
5.05E+00
5.01E+00
4.98E+00
4.94E+00
4.90E+00
4.85E+00
4.82E+00
4.78E+00
4.78E+00
4.81E+00
4.82E+00
4.82E+00
4.80E+00
4.80E+00
4.82E+00
4.81E+00
4.80E+00
4.79E+00
4.80E+00
4.84E+00
4.85E+00
4.85E+00
4.84E+00
4.81E+00
4.81E+00
4.81E+00
4.82E+00
4.81E+00
4.79E+00
4.78E+00
4.80E+00
4.84E+00
4.84E+00
4.83E+00
4.82E+00
4.80E+00
4.81E+00
4.83E+00
4.83E+00
4.82E+00
4.81E+00
4.78E+00
4.79E+00
4.80E+00
4.83E+00
4.80E+00
4.76E+00
4.74E+00
4.74E+00
4.78E+00
4.81E+00
4.82E+00
4.81E+00
4.85E+00
4.89E+00
4.86E+00
4.78E+00
4.71E+00
4.67E+00
4.65E+00
4.65E+00
4.65E+00
4.61E+00
4.55E+00
4.49E+00
4.44E+00
4.42E+00
4.39E+00
4.34E+00
4.27E+00
4.21E+00
4.18E+00
4.19E+00
4.23E+00
4.29E+00
4.31E+00
4.33E+00
4.36E+00
4.43E+00
4.52E+00
4.59E+00
4.61E+00
4.64E+00
4.68E+00
4.75E+00
4.79E+00
4.84E+00
4.85E+00
4.85E+00
4.83E+00
4.84E+00
4.85E+00
4.90E+00
4.91E+00
4.90E+00
4.87E+00
4.87E+00
4.89E+00
4.92E+00
4.90E+00
4.89E+00
4.88E+00
4.89E+00
4.90E+00
4.91E+00
4.91E+00
4.90E+00
4.89E+00
4.88E+00
4.88E+00
4.89E+00
4.89E+00
4.88E+00
4.87E+00
4.89E+00
4.91E+00
4.95E+00
4.94E+00
4.93E+00
4.92E+00
4.92E+00
4.93E+00
4.93E+00
4.95E+00
4.93E+00
4.91E+00
4.93E+00
4.94E+00
4.93E+00
4.91E+00
4.91E+00
4.91E+00
4.94E+00
4.96E+00
4.97E+00
4.97E+00
4.98E+00
4.98E+00
4.99E+00
5.00E+00
4.98E+00
4.97E+00
4.99E+00
4.99E+00
5.00E+00
5.00E+00
4.99E+00
4.98E+00
4.98E+00
5.01E+00
5.05E+00
5.07E+00
5.04E+00
5.03E+00
5.02E+00
5.02E+00
5.03E+00
5.04E+00
5.05E+00
5.05E+00
5.03E+00
5.01E+00
5.01E+00
5.02E+00
5.01E+00
5.02E+00
5.04E+00
5.03E+00
5.05E+00
5.04E+00
5.03E+00
5.03E+00
5.02E+00
5.00E+00
5.00E+00
5.00E+00
5.00E+00
4.98E+00
4.97E+00
4.95E+00
4.94E+00
4.94E+00
4.95E+00
4.95E+00
4.94E+00
4.93E+00
4.92E+00
4.91E+00
4.93E+00
4.93E+00
4.92E+00
4.90E+00
4.89E+00
4.91E+00
4.94E+00
4.91E+00
4.91E+00
4.90E+00
4.92E+00
4.93E+00
4.93E+00
4.91E+00
4.89E+00
4.85E+00
4.86E+00
4.89E+00
4.93E+00
4.93E+00
4.91E+00
4.89E+00
4.89E+00
4.90E+00
4.89E+00
4.90E+00
4.89E+00
4.90E+00
4.91E+00
4.92E+00
4.93E+00
4.89E+00
4.89E+00
4.88E+00
4.88E+00
4.89E+00
4.89E+00
4.89E+00
4.88E+00
4.85E+00
4.85E+00
4.86E+00
4.85E+00
4.85E+00
4.87E+00
4.86E+00
4.88E+00
4.89E+00
4.91E+00
4.88E+00
4.85E+00
4.81E+00
4.80E+00
4.84E+00
4.88E+00
4.88E+00
4.88E+00
4.86E+00
4.83E+00
4.82E+00
4.83E+00
4.84E+00
4.84E+00
4.84E+00
4.84E+00
4.84E+00
4.83E+00
4.82E+00
4.81E+00
4.82E+00
4.83E+00
4.85E+00
4.84E+00
4.84E+00
4.83E+00
4.82E+00
4.82E+00
4.84E+00
4.84E+00
4.82E+00
4.82E+00
4.82E+00
4.82E+00
4.84E+00
4.83E+00
4.83E+00
4.82E+00
4.81E+00
4.81E+00
4.82E+00
4.84E+00
4.83E+00
4.83E+00
4.83E+00
4.84E+00
4.86E+00
4.88E+00
4.87E+00
4.84E+00
4.83E+00
4.83E+00
4.86E+00
4.86E+00
4.85E+00
4.84E+00
4.83E+00
4.85E+00
4.86E+00
4.86E+00
4.86E+00
4.84E+00
4.83E+00
4.83E+00
4.84E+00
4.86E+00
4.84E+00
4.84E+00
4.84E+00
4.85E+00
4.86E+00
4.86E+00
4.84E+00
4.83E+00
4.83E+00
4.85E+00
4.87E+00
4.88E+00
4.89E+00
4.87E+00
4.85E+00
4.86E+00
4.86E+00
4.85E+00
4.85E+00
4.86E+00
4.86E+00
4.87E+00
4.90E+00
4.91E+00
4.89E+00
4.86E+00
4.83E+00
4.83E+00
4.86E+00
4.89E+00
4.89E+00
4.88E+00
4.87E+00
4.87E+00
4.88E+00
4.89E+00
4.87E+00
4.85E+00
4.85E+00
4.87E+00
4.89E+00
4.91E+00
4.89E+00
4.88E+00
4.86E+00
4.87E+00
4.87E+00
4.87E+00
4.85E+00
4.84E+00
4.86E+00
4.88E+00
4.89E+00
4.89E+00
4.89E+00
4.89E+00
4.88E+00
4.87E+00
4.86E+00
4.87E+00
4.89E+00
4.90E+00
4.89E+00
4.89E+00
4.88E+00
4.89E+00
4.89E+00
4.88E+00
4.87E+00
4.88E+00
4.89E+00
4.92E+00
4.91E+00
4.90E+00
4.90E+00
4.91E+00
4.92E+00
4.94E+00
4.95E+00
4.94E+00
4.94E+00
4.95E+00
4.95E+00
4.98E+00
5.01E+00
5.02E+00
5.01E+00
5.03E+00
5.06E+00
5.10E+00
5.12E+00
5.12E+00
5.12E+00
5.11E+00
5.12E+00
5.11E+00
5.11E+00
5.13E+00
5.13E+00
5.11E+00
5.05E+00
5.00E+00
4.95E+00
4.92E+00
4.89E+00
4.84E+00
4.82E+00
4.83E+00
4.85E+00
4.85E+00
4.84E+00
4.86E+00
4.85E+00
4.85E+00
4.85E+00
4.86E+00
4.85E+00
4.85E+00
4.86E+00
4.86E+00
4.85E+00
4.84E+00
4.83E+00
4.83E+00
4.84E+00
4.85E+00
4.85E+00
4.84E+00
4.82E+00
4.83E+00
4.85E+00
4.87E+00
4.86E+00
4.83E+00
4.82E+00
4.84E+00
4.86E+00
4.87E+00
4.86E+00
4.83E+00
4.83E+00
4.85E+00
4.85E+00
4.85E+00
4.80E+00
4.79E+00
4.79E+00
4.85E+00
4.90E+00
4.91E+00
4.90E+00
4.88E+00
4.79E+00
4.73E+00
4.72E+00
4.71E+00
4.69E+00
4.68E+00
4.67E+00
4.65E+00
4.61E+00
4.57E+00
4.50E+00
4.46E+00
4.42E+00
4.38E+00
4.32E+00
4.29E+00
4.28E+00
4.27E+00
4.31E+00
4.34E+00
4.35E+00
4.37E+00
4.40E+00
4.49E+00
4.57E+00
4.65E+00
4.69E+00
4.73E+00
4.77E+00
4.82E+00
4.84E+00
4.86E+00
4.87E+00
4.90E+00
4.90E+00
4.89E+00
4.89E+00
4.90E+00
4.91E+00
4.93E+00
4.92E+00
4.89E+00
4.90E+00
4.89E+00
4.92E+00
4.94E+00
4.93E+00
4.94E+00
4.91E+00
4.91E+00
4.93E+00
4.94E+00
4.92E+00
4.92E+00
4.92E+00
4.94E+00
4.95E+00
4.94E+00
4.93E+00
4.92E+00
4.93E+00
4.94E+00
4.96E+00
4.95E+00
4.92E+00
4.91E+00
4.92E+00
4.96E+00
4.99E+00
5.00E+00
4.99E+00
4.97E+00
4.95E+00
4.94E+00
4.97E+00
5.00E+00
5.02E+00
5.01E+00
4.99E+00
4.98E+00
4.99E+00
5.01E+00
5.00E+00
5.00E+00
4.97E+00
4.99E+00
5.03E+00
5.05E+00
5.05E+00
5.04E+00
5.04E+00
5.04E+00
5.05E+00
5.05E+00
5.05E+00
5.05E+00
5.04E+00
5.04E+00
5.06E+00
5.10E+00
5.10E+00
5.07E+00
5.06E+00
5.06E+00
5.05E+00
5.06E+00
5.06E+00
5.06E+00
5.04E+00
5.05E+00
5.04E+00
5.03E+00
5.04E+00
5.05E+00
5.04E+00
5.02E+00
5.01E+00
5.00E+00
5.01E+00
5.00E+00
4.99E+00
4.96E+00
4.94E+00
4.95E+00
4.93E+00
4.93E+00
4.96E+00
4.98E+00
4.97E+00
4.94E+00
4.94E+00
4.94E+00
4.94E+00
4.94E+00
4.94E+00
4.94E+00
4.93E+00
4.91E+00
4.90E+00
4.90E+00
4.90E+00
4.90E+00
4.92E+00
4.92E+00
4.91E+00
4.91E+00
4.89E+00
4.91E+00
4.92E+00
4.91E+00
4.89E+00
4.89E+00
4.89E+00
4.91E+00
4.90E+00
4.88E+00
4.88E+00
4.89E+00
4.90E+00
4.88E+00
4.86E+00
4.85E+00
4.86E+00
4.89E+00
4.91E+00
4.91E+00
4.89E+00
4.88E+00
4.87E+00
4.88E+00
4.89E+00
4.91E+00
4.90E+00
4.89E+00
4.86E+00
4.85E+00
4.86E+00
4.86E+00
4.85E+00
4.85E+00
4.83E+00
4.84E+00
4.86E+00
4.86E+00
4.88E+00
4.86E+00
4.83E+00
4.83E+00
4.84E+00
4.84E+00
4.84E+00
4.83E+00
4.81E+00
4.82E+00
4.83E+00
4.83E+00
4.81E+00
4.80E+00
4.81E+00
4.84E+00
4.83E+00
4.85E+00
4.84E+00
4.84E+00
4.82E+00
4.81E+00
4.84E+00
4.86E+00
4.85E+00
4.83E+00
4.81E+00
4.82E+00
4.83E+00
4.85E+00
4.85E+00
4.84E+00
4.83E+00
4.83E+00
4.83E+00
4.85E+00
4.84E+00
4.83E+00
4.83E+00
4.84E+00
4.85E+00
4.85E+00
4.84E+00
4.83E+00
4.82E+00
4.84E+00
4.86E+00
4.87E+00
4.85E+00
4.83E+00
4.85E+00
4.84E+00
4.87E+00
4.89E+00
4.89E+00
4.87E+00
4.85E+00
4.85E+00
4.86E+00
4.88E+00
4.87E+00
4.85E+00
4.85E+00
4.85E+00
4.85E+00
4.88E+00
4.88E+00
4.87E+00
4.86E+00
4.86E+00
4.87E+00
4.87E+00
4.87E+00
4.86E+00
4.87E+00
4.86E+00
4.87E+00
4.87E+00
4.86E+00
4.85E+00
4.87E+00
4.89E+00
4.88E+00
4.87E+00
4.87E+00
4.86E+00
4.86E+00
4.86E+00
4.88E+00
4.89E+00
4.87E+00
4.87E+00
4.87E+00
4.85E+00
4.85E+00
4.86E+00
4.88E+00
4.88E+00
4.86E+00
4.86E+00
4.85E+00
4.85E+00
4.86E+00
4.88E+00
4.88E+00
4.90E+00
4.90E+00
4.89E+00
4.90E+00
4.91E+00
4.90E+00
4.90E+00
4.91E+00
4.92E+00
4.93E+00
4.92E+00
4.93E+00
4.95E+00
4.97E+00
4.97E+00
4.97E+00
5.01E+00
5.03E+00
5.05E+00
5.06E+00
5.07E+00
5.08E+00
5.08E+00
5.08E+00
5.10E+00
5.12E+00
5.12E+00
5.10E+00
5.07E+00
5.06E+00
5.05E+00
5.02E+00
4.99E+00
4.93E+00
4.88E+00
4.82E+00
4.81E+00
4.82E+00
4.86E+00
4.87E+00
4.83E+00
4.81E+00
4.81E+00
4.81E+00
4.84E+00
4.82E+00
4.83E+00
4.80E+00
4.80E+00
4.80E+00
4.83E+00
4.84E+00
4.86E+00
4.85E+00
4.84E+00
4.83E+00
4.82E+00
4.81E+00
4.81E+00
4.82E+00
4.82E+00
4.84E+00
4.84E+00
4.83E+00
4.84E+00
4.84E+00
4.83E+00
4.83E+00
4.82E+00
4.81E+00
4.82E+00
4.84E+00
4.82E+00
4.78E+00
4.77E+00
4.78E+00
4.81E+00
4.82E+00
4.81E+00
4.81E+00
4.83E+00
4.81E+00
4.74E+00
4.69E+00
4.67E+00
4.68E+00
4.69E+00
4.67E+00
4.61E+00
4.56E+00
4.53E+00
4.49E+00
4.44E+00
4.41E+00
4.34E+00
4.28E+00
4.25E+00
4.24E+00
4.24E+00
4.27E+00
4.32E+00
4.35E+00
4.38E+00
4.44E+00
4.50E+00
4.57E+00
4.60E+00
4.63E+00
4.68E+00
4.75E+00
4.82E+00
4.85E+00
4.84E+00
4.83E+00
4.84E+00
4.87E+00
4.87E+00
4.87E+00
4.88E+00
4.88E+00
4.89E+00
4.90E+00
4.89E+00
4.89E+00
4.90E+00
4.91E+00
4.93E+00
4.92E+00
4.91E+00
4.90E+00
4.89E+00
4.87E+00
4.89E+00
4.90E+00
4.92E+00
4.93E+00
4.94E+00
4.92E+00
4.92E+00
4.92E+00
4.94E+00
4.95E+00
4.93E+00
4.93E+00
4.93E+00
4.93E+00
4.93E+00
4.93E+00
4.94E+00
4.92E+00
4.94E+00
4.97E+00
4.99E+00
4.99E+00
4.98E+00
4.97E+00
4.97E+00
4.97E+00
4.98E+00
4.97E+00
4.98E+00
4.98E+00
5.00E+00
5.01E+00
5.00E+00
5.00E+00
5.00E+00
5.00E+00
5.02E+00
5.04E+00
5.04E+00
5.04E+00
5.04E+00
5.04E+00
5.06E+00
5.07E+00
5.08E+00
5.07E+00
5.06E+00
5.04E+00
5.04E+00
5.05E+00
5.04E+00
5.06E+00
5.05E+00
5.04E+00
5.02E+00
5.02E+00
5.03E+00
5.04E+00
5.02E+00
5.01E+00
5.02E+00
5.01E+00
5.00E+00
5.00E+00
4.98E+00
4.96E+00
4.94E+00
4.95E+00
4.96E+00
4.98E+00
4.97E+00
4.94E+00
4.93E+00
4.94E+00
4.93E+00
4.93E+00
4.93E+00
4.90E+00
4.90E+00
4.90E+00
4.91E+00
4.92E+00
4.91E+00
4.90E+00
4.90E+00
4.89E+00
4.87E+00
4.87E+00
4.88E+00
4.89E+00
4.91E+00
4.93E+00
4.93E+00
4.93E+00
4.90E+00
4.90E+00
4.88E+00
4.90E+00
4.90E+00
4.90E+00
4.88E+00
4.86E+00
4.87E+00
4.86E+00
4.88E+00
4.88E+00
4.88E+00
4.87E+00
4.87E+00
4.88E+00
4.90E+00
4.89E+00
4.88E+00
4.85E+00
4.86E+00
4.86E+00
4.87E+00
4.85E+00
4.83E+00
4.80E+00
4.82E+00
4.86E+00
4.89E+00
4.88E+00
4.86E+00
4.85E+00
4.84E+00
4.84E+00
4.83E+00
4.84E+00
4.83E+00
4.82E+00
4.83E+00
4.84E+00
4.84E+00
4.82E+00
4.80E+00
4.79E+00
4.79E+00
4.80E+00
4.81E+00
4.82E+00
4.81E+00
4.79E+00
4.78E+00
4.77E+00
4.77E+00
4.81E+00
4.83E+00
4.83E+00
4.83E+00
4.84E+00
4.82E+00
4.82E+00
4.81E+00
4.79E+00
4.80E+00
4.84E+00
4.85E+00
4.83E+00
4.83E+00
4.82E+00
4.83E+00
4.84E+00
4.83E+00
4.83E+00
4.83E+00
4.81E+00
4.83E+00
4.83E+00
4.84E+00
4.85E+00
4.82E+00
4.81E+00
4.81E+00
4.84E+00
4.85E+00
4.86E+00
4.86E+00
4.85E+00
4.84E+00
4.84E+00
4.85E+00
4.87E+00
4.84E+00
4.82E+00
4.83E+00
4.87E+00
4.88E+00
4.87E+00
4.85E+00
4.84E+00
4.85E+00
4.86E+00
4.87E+00
4.87E+00
4.85E+00
4.82E+00
4.84E+00
4.86E+00
4.86E+00
4.85E+00
4.84E+00
4.84E+00
4.85E+00
4.86E+00
4.85E+00
4.86E+00
4.85E+00
4.85E+00
4.85E+00
4.86E+00
4.85E+00
4.83E+00
4.82E+00
4.83E+00
4.86E+00
4.88E+00
4.88E+00
4.87E+00
4.86E+00
4.85E+00
4.84E+00
4.88E+00
4.88E+00
4.88E+00
4.86E+00
4.84E+00
4.87E+00
4.88E+00
4.88E+00
4.86E+00
4.86E+00
4.86E+00
4.86E+00
4.87E+00
4.88E+00
4.86E+00
4.85E+00
4.83E+00
4.83E+00
4.86E+00
4.90E+00
4.90E+00
4.90E+00
4.90E+00
4.94E+00
4.94E+00
4.94E+00
4.95E+00
4.94E+00
4.95E+00
4.95E+00
4.98E+00
5.01E+00
5.03E+00
5.03E+00
5.01E+00
5.02E+00
5.04E+00
5.06E+00
5.07E+00
5.08E+00
5.07E+00
5.05E+00
5.06E+00
5.10E+00
5.15E+00
5.12E+00
5.05E+00
4.97E+00
4.94E+00
4.92E+00
4.89E+00
4.83E+00
4.81E+00
4.83E+00
4.86E+00
4.85E+00
4.82E+00
4.80E+00
4.81E+00
4.84E+00
4.84E+00
4.83E+00
4.83E+00
4.82E+00
4.83E+00
4.83E+00
4.83E+00
4.83E+00
4.84E+00
4.82E+00
4.82E+00
4.82E+00
4.83E+00
4.86E+00
4.84E+00
4.82E+00
4.80E+00
4.77E+00
4.81E+00
4.83E+00
4.83E+00
4.84E+00
4.80E+00
4.80E+00
4.84E+00
4.86E+00
4.84E+00
4.80E+00
4.81E+00
4.85E+00
4.87E+00
4.84E+00
4.80E+00
4.78E+00
4.79E+00
4.83E+00
4.84E+00
4.85E+00
4.84E+00
4.83E+00
4.81E+00
4.76E+00
4.73E+00
4.70E+00
4.69E+00
4.69E+00
4.68E+00
4.64E+00
4.59E+00
4.56E+00
4.51E+00
4.47E+00
4.44E+00
4.44E+00
4.42E+00
4.38E+00
4.35E+00
4.30E+00
4.26E+00
4.28E+00
4.33E+00
4.37E+00
4.39E+00
4.41E+00
4.45E+00
4.55E+00
4.63E+00
4.67E+00
4.70E+00
4.74E+00
4.78E+00
4.81E+00
4.85E+00
4.86E+00
4.88E+00
4.89E+00
4.88E+00
4.88E+00
4.89E+00
4.90E+00
4.91E+00
4.92E+00
4.92E+00
4.92E+00
4.91E+00
4.91E+00
4.92E+00
4.92E+00
4.92E+00
4.92E+00
4.90E+00
4.91E+00
4.92E+00
4.92E+00
4.92E+00
4.91E+00
4.90E+00
4.90E+00
4.90E+00
4.93E+00
4.92E+00
4.93E+00
4.94E+00
4.97E+00
4.99E+00
4.98E+00
4.95E+00
4.95E+00
4.97E+00
4.97E+00
4.95E+00
4.94E+00
4.94E+00
4.96E+00
4.98E+00
4.97E+00
4.95E+00
4.94E+00
4.95E+00
4.98E+00
5.00E+00
4.97E+00
4.98E+00
5.01E+00
5.02E+00
5.04E+00
5.02E+00
5.03E+00
5.02E+00
5.02E+00
5.01E+00
5.02E+00
5.03E+00
5.05E+00
5.06E+00
5.05E+00
5.03E+00
5.05E+00
5.06E+00
5.07E+00
5.05E+00
5.08E+00
5.08E+00
5.09E+00
5.08E+00
5.06E+00
5.05E+00
5.04E+00
5.03E+00
5.06E+00
5.08E+00
5.06E+00
5.04E+00
5.02E+00
5.01E+00
4.99E+00
5.01E+00
5.02E+00
5.02E+00
5.01E+00
4.98E+00
4.97E+00
4.97E+00
4.98E+00
4.99E+00
4.97E+00
4.96E+00
4.95E+00
4.95E+00
4.94E+00
4.94E+00
4.96E+00
4.95E+00
4.96E+00
4.97E+00
4.95E+00
4.95E+00
4.92E+00
4.92E+00
4.93E+00
4.94E+00
4.96E+00
4.95E+00
4.94E+00
4.94E+00
4.95E+00
4.95E+00
4.95E+00
4.92E+00
4.92E+00
4.90E+00
4.93E+00
4.94E+00
4.95E+00
4.95E+00
4.94E+00
4.92E+00
4.92E+00
4.92E+00
4.92E+00
4.93E+00
4.94E+00
4.90E+00
4.90E+00
4.90E+00
4.90E+00
4.90E+00
4.90E+00
4.91E+00
4.92E+00
4.93E+00
4.92E+00
4.91E+00
4.90E+00
4.91E+00
4.91E+00
4.91E+00
4.90E+00
4.89E+00
4.89E+00
4.89E+00
4.90E+00
4.90E+00
4.88E+00
4.88E+00
4.87E+00
4.87E+00
4.87E+00
4.88E+00
4.88E+00
4.87E+00
4.87E+00
4.86E+00
4.86E+00
4.87E+00
4.87E+00
4.87E+00
4.85E+00
4.85E+00
4.86E+00
4.88E+00
4.88E+00
4.86E+00
4.84E+00
4.84E+00
4.88E+00
4.90E+00
4.90E+00
4.89E+00
4.88E+00
4.87E+00
4.89E+00
4.89E+00
4.88E+00
4.88E+00
4.88E+00
4.88E+00
4.89E+00
4.89E+00
4.90E+00
4.91E+00
4.89E+00
4.88E+00
4.87E+00
4.88E+00
4.89E+00
4.90E+00
4.90E+00
4.91E+00
4.91E+00
4.91E+00
4.92E+00
4.92E+00
4.92E+00
4.90E+00
4.90E+00
4.91E+00
4.92E+00
4.92E+00
4.90E+00
4.89E+00
4.90E+00
4.90E+00
4.91E+00
4.90E+00
4.90E+00
4.89E+00
4.91E+00
4.93E+00
4.93E+00
4.93E+00
4.90E+00
4.89E+00
4.90E+00
4.91E+00
4.92E+00
4.91E+00
4.91E+00
4.91E+00
4.93E+00
4.94E+00
4.94E+00
4.93E+00
4.93E+00
4.92E+00
4.93E+00
4.92E+00
4.91E+00
4.93E+00
4.93E+00
4.95E+00
4.94E+00
4.94E+00
4.93E+00
4.92E+00
4.93E+00
4.91E+00
4.91E+00
4.93E+00
4.93E+00
4.93E+00
4.92E+00
4.92E+00
4.91E+00
4.92E+00
4.94E+00
4.94E+00
4.93E+00
4.94E+00
4.94E+00
4.93E+00
4.93E+00
4.92E+00
4.92E+00
4.92E+00
4.95E+00
4.98E+00
5.00E+00
5.00E+00
4.99E+00
4.99E+00
4.99E+00
5.00E+00
5.00E+00
5.03E+00
5.04E+00
5.06E+00
5.08E+00
5.10E+00
5.11E+00
5.13E+00
5.12E+00
5.13E+00
5.13E+00
5.14E+00
5.16E+00
5.16E+00
5.17E+00
5.16E+00
5.16E+00
5.13E+00
5.10E+00
5.04E+00
5.00E+00
4.96E+00
4.93E+00
4.90E+00
4.87E+00
4.86E+00
4.87E+00
4.87E+00
4.89E+00
4.90E+00
4.90E+00
4.90E+00
4.87E+00
4.87E+00
4.87E+00
4.89E+00
4.88E+00
4.86E+00
4.85E+00
4.86E+00
4.89E+00
4.89E+00
4.89E+00
4.88E+00
4.87E+00
4.86E+00
4.88E+00
4.89E+00
4.89E+00
4.89E+00
4.87E+00
4.86E+00
4.86E+00
4.87E+00
4.87E+00
4.86E+00
4.88E+00
4.86E+00
4.86E+00
4.85E+00
4.87E+00
4.86E+00
4.84E+00
4.81E+00
4.80E+00
4.83E+00
4.87E+00
4.88E+00
4.89E+00
4.88E+00
4.85E+00
4.78E+00
4.75E+00
4.72E+00
4.70E+00
4.69E+00
4.69E+00
4.68E+00
4.64E+00
4.59E+00
4.53E+00
4.47E+00
4.44E+00
4.40E+00
4.34E+00
4.30E+00
4.28E+00
4.26E+00
4.30E+00
4.37E+00
4.39E+00
4.41E+00
4.44E+00
4.51E+00
4.61E+00
4.67E+00
4.71E+00
4.73E+00
4.78E+00
4.82E+00
4.87E+00
4.90E+00
4.92E+00
4.93E+00
4.91E+00
4.90E+00
4.92E+00
4.93E+00
4.93E+00
4.92E+00
4.92E+00
4.92E+00
4.93E+00
4.95E+00
4.96E+00
4.95E+00
4.94E+00
4.93E+00
4.93E+00
4.94E+00
4.97E+00
4.96E+00
4.96E+00
4.95E+00
4.96E+00
4.95E+00
4.94E+00
4.94E+00
4.95E+00
4.94E+00
4.96E+00
4.96E+00
4.98E+00
4.99E+00
4.98E+00
4.98E+00
4.98E+00
4.98E+00
4.99E+00
4.99E+00
4.98E+00
4.97E+00
4.96E+00
4.99E+00
5.02E+00
5.03E+00
5.03E+00
5.01E+00
5.01E+00
5.03E+00
5.04E+00
5.04E+00
5.04E+00
5.04E+00
5.04E+00
5.06E+00
5.07E+00
5.08E+00
5.08E+00
5.07E+00
5.08E+00
5.08E+00
5.09E+00
5.10E+00
5.10E+00
5.07E+00
5.08E+00
5.10E+00
5.10E+00
5.09E+00
5.08E+00
5.07E+00
5.08E+00
5.09E+00
5.09E+00
5.08E+00
5.08E+00
5.05E+00
5.06E+00
5.07E+00
5.05E+00
5.04E+00
5.05E+00
5.05E+00
5.05E+00
5.03E+00
5.01E+00
5.01E+00
5.02E+00
5.02E+00
5.01E+00
4.99E+00
4.99E+00
4.97E+00
4.95E+00
4.95E+00
4.97E+00
4.97E+00
4.97E+00
4.97E+00
4.95E+00
4.93E+00
4.92E+00
4.93E+00
4.93E+00
4.94E+00
4.92E+00
4.91E+00
4.93E+00
4.94E+00
4.95E+00
4.94E+00
4.91E+00
4.91E+00
4.92E+00
4.92E+00
4.91E+00
4.91E+00
4.90E+00
4.90E+00
4.92E+00
4.93E+00
4.94E+00
4.92E+00
4.91E+00
4.89E+00
4.90E+00
4.91E+00
4.91E+00
4.90E+00
4.89E+00
4.89E+00
4.90E+00
4.88E+00
4.91E+00
4.90E+00
4.89E+00
4.88E+00
4.87E+00
4.90E+00
4.89E+00
4.88E+00
4.87E+00
4.85E+00
4.85E+00
4.88E+00
4.88E+00
4.88E+00
4.87E+00
4.86E+00
4.84E+00
4.85E+00
4.86E+00
4.88E+00
4.87E+00
4.85E+00
4.84E+00
4.83E+00
4.86E+00
4.86E+00
4.84E+00
4.84E+00
4.83E+00
4.85E+00
4.86E+00
4.85E+00
4.83E+00
4.82E+00
4.82E+00
4.83E+00
4.82E+00
4.81E+00
4.82E+00
4.83E+00
4.85E+00
4.86E+00
4.85E+00
4.84E+00
4.82E+00
4.83E+00
4.84E+00
4.84E+00
4.85E+00
4.84E+00
4.85E+00
4.85E+00
4.84E+00
4.84E+00
4.85E+00
4.84E+00
4.83E+00
4.82E+00
4.83E+00
4.87E+00
4.88E+00
4.88E+00
4.86E+00
4.83E+00
4.84E+00
4.85E+00
4.86E+00
4.89E+00
4.88E+00
4.86E+00
4.86E+00
4.86E+00
4.87E+00
4.86E+00
4.87E+00
4.85E+00
4.85E+00
4.88E+00
4.88E+00
4.87E+00
4.86E+00
4.82E+00
4.84E+00
4.87E+00
4.90E+00
4.90E+00
4.87E+00
4.86E+00
4.85E+00
4.85E+00
4.86E+00
4.86E+00
4.86E+00
4.86E+00
4.89E+00
4.89E+00
4.90E+00
4.90E+00
4.88E+00
4.87E+00
4.87E+00
4.88E+00
4.88E+00
4.88E+00
4.88E+00
4.87E+00
4.87E+00
4.89E+00
4.88E+00
4.88E+00
4.88E+00
4.88E+00
4.91E+00
4.91E+00
4.91E+00
4.89E+00
4.88E+00
4.85E+00
4.87E+00
4.89E+00
4.91E+00
4.90E+00
4.90E+00
4.88E+00
4.88E+00
4.89E+00
4.91E+00
4.92E+00
4.90E+00
4.89E+00
4.91E+00
4.92E+00
4.91E+00
4.90E+00
4.89E+00
4.90E+00
4.92E+00
4.91E+00
4.90E+00
4.88E+00
4.88E+00
4.88E+00
4.91E+00
4.93E+00
4.93E+00
4.93E+00
4.92E+00
4.92E+00
4.94E+00
4.96E+00
4.97E+00
4.97E+00
4.97E+00
4.97E+00
5.00E+00
5.03E+00
5.06E+00
5.06E+00
5.06E+00
5.08E+00
5.10E+00
5.11E+00
5.09E+00
5.10E+00
5.10E+00
5.10E+00
5.13E+00
5.15E+00
5.14E+00
5.08E+00
5.01E+00
4.94E+00
4.95E+00
4.97E+00
4.95E+00
4.88E+00
4.84E+00
4.83E+00
4.86E+00
4.88E+00
4.88E+00
4.87E+00
4.85E+00
4.84E+00
4.83E+00
4.84E+00
4.84E+00
4.84E+00
4.84E+00
4.82E+00
4.84E+00
4.84E+00
4.85E+00
4.85E+00
4.85E+00
4.85E+00
4.86E+00
4.86E+00
4.86E+00
4.86E+00
4.85E+00
4.85E+00
4.84E+00
4.84E+00
4.84E+00
4.85E+00
4.84E+00
4.84E+00
4.84E+00
4.84E+00
4.86E+00
4.86E+00
4.86E+00
4.84E+00
4.86E+00
4.86E+00
4.87E+00
4.85E+00
4.82E+00
4.80E+00
4.83E+00
4.86E+00
4.91E+00
4.93E+00
4.94E+00
4.93E+00
4.88E+00
4.81E+00
4.75E+00
4.71E+00
4.70E+00
4.67E+00
4.68E+00
4.68E+00
4.65E+00
4.61E+00
4.58E+00
4.54E+00
4.51E+00
4.49E+00
4.44E+00
4.38E+00
4.33E+00
4.28E+00
4.27E+00
4.27E+00
4.29E+00
4.31E+00
4.33E+00
4.34E+00
4.39E+00
4.47E+00
4.56E+00
4.63E+00
4.65E+00
4.68E+00
4.71E+00
4.78E+00
4.84E+00
4.87E+00
4.87E+00
4.87E+00
4.89E+00
4.90E+00
4.91E+00
4.90E+00
4.90E+00
4.91E+00
4.92E+00
4.92E+00
4.94E+00
4.93E+00
4.92E+00
4.93E+00
4.96E+00
4.96E+00
4.97E+00
4.96E+00
4.94E+00
4.92E+00
4.92E+00
4.94E+00
4.96E+00
4.96E+00
4.95E+00
4.94E+00
4.94E+00
4.94E+00
4.96E+00
4.96E+00
4.95E+00
4.95E+00
4.97E+00
4.98E+00
4.97E+00
4.98E+00
4.97E+00
4.97E+00
4.98E+00
4.98E+00
4.99E+00
4.98E+00
4.96E+00
4.95E+00
4.95E+00
4.96E+00
4.98E+00
4.99E+00
5.00E+00
5.01E+00
5.01E+00
5.01E+00
5.01E+00
5.01E+00
5.01E+00
5.01E+00
5.03E+00
5.03E+00
5.04E+00
5.03E+00
5.03E+00
5.02E+00
5.02E+00
5.04E+00
5.05E+00
5.04E+00
5.03E+00
5.02E+00
5.04E+00
5.07E+00
5.08E+00
5.08E+00
5.07E+00
5.05E+00
5.07E+00
5.07E+00
5.07E+00
5.07E+00
5.06E+00
5.06E+00
5.08E+00
5.06E+00
5.06E+00
5.06E+00
5.04E+00
5.03E+00
5.02E+00
5.03E+00
5.02E+00
5.01E+00
4.99E+00
4.99E+00
5.01E+00
5.03E+00
5.02E+00
4.99E+00
4.97E+00
4.98E+00
4.99E+00
5.00E+00
4.99E+00
4.97E+00
4.95E+00
4.94E+00
4.94E+00
4.95E+00
4.94E+00
4.93E+00
4.93E+00
4.92E+00
4.92E+00
4.94E+00
4.94E+00
4.94E+00
4.92E+00
4.92E+00
4.93E+00
4.94E+00
4.94E+00
4.92E+00
4.91E+00
4.92E+00
4.92E+00
4.94E+00
4.93E+00
4.90E+00
4.90E+00
4.90E+00
4.92E+00
4.93E+00
4.93E+00
4.93E+00
4.90E+00
4.92E+00
4.90E+00
4.91E+00
4.93E+00
4.93E+00
4.92E+00
4.90E+00
4.91E+00
4.92E+00
4.92E+00
4.90E+00
4.89E+00
4.86E+00
4.88E+00
4.89E+00
4.90E+00
4.92E+00
4.91E+00
4.89E+00
4.89E+00
4.91E+00
4.91E+00
4.90E+00
4.88E+00
4.87E+00
4.86E+00
4.88E+00
4.89E+00
4.88E+00
4.87E+00
4.85E+00
4.85E+00
4.85E+00
4.86E+00
4.85E+00
4.84E+00
4.81E+00
4.82E+00
4.83E+00
4.86E+00
4.83E+00
4.81E+00
4.80E+00
4.84E+00
4.86E+00
4.86E+00
4.86E+00
4.85E+00
4.84E+00
4.84E+00
4.85E+00
4.86E+00
4.85E+00
4.84E+00
4.84E+00
4.85E+00
4.85E+00
4.85E+00
4.84E+00
4.85E+00
4.84E+00
4.85E+00
4.86E+00
4.87E+00
4.86E+00
4.86E+00
4.85E+00
4.84E+00
4.86E+00
4.86E+00
4.87E+00
4.85E+00
4.84E+00
4.85E+00
4.86E+00
4.85E+00
4.85E+00
4.86E+00
4.86E+00
4.86E+00
4.86E+00
4.88E+00
4.91E+00
4.90E+00
4.90E+00
4.89E+00
4.90E+00
4.90E+00
4.88E+00
4.87E+00
4.86E+00
4.88E+00
4.90E+00
4.90E+00
4.87E+00
4.87E+00
4.87E+00
4.87E+00
4.89E+00
4.88E+00
4.86E+00
4.86E+00
4.85E+00
4.87E+00
4.89E+00
4.91E+00
4.89E+00
4.87E+00
4.88E+00
4.89E+00
4.90E+00
4.91E+00
4.90E+00
4.89E+00
4.88E+00
4.89E+00
4.88E+00
4.88E+00
4.88E+00
4.88E+00
4.87E+00
4.88E+00
4.88E+00
4.89E+00
4.88E+00
4.87E+00
4.86E+00
4.87E+00
4.88E+00
4.87E+00
4.88E+00
4.88E+00
4.87E+00
4.87E+00
4.88E+00
4.89E+00
4.90E+00
4.90E+00
4.89E+00
4.91E+00
4.92E+00
4.94E+00
4.93E+00
4.93E+00
4.92E+00
4.93E+00
4.93E+00
4.97E+00
5.01E+00
5.02E+00
5.02E+00
5.06E+00
5.09E+00
5.09E+00
5.09E+00
5.08E+00
5.08E+00
5.08E+00
5.10E+00
5.10E+00
5.11E+00
5.10E+00
5.11E+00
5.10E+00
5.09E+00
5.04E+00
4.99E+00
4.96E+00
4.92E+00
4.89E+00
4.88E+00
4.85E+00
4.83E+00
4.82E+00
4.82E+00
4.85E+00
4.86E+00
4.87E+00
4.85E+00
4.84E+00
4.83E+00
4.84E+00
4.84E+00
4.84E+00
4.85E+00
4.84E+00
4.83E+00
4.84E+00
4.84E+00
4.83E+00
4.82E+00
4.83E+00
4.83E+00
4.85E+00
4.86E+00
4.86E+00
4.84E+00
4.83E+00
4.83E+00
4.82E+00
4.83E+00
4.83E+00
4.83E+00
4.84E+00
4.84E+00
4.85E+00
4.86E+00
4.87E+00
4.86E+00
4.86E+00
4.84E+00
4.83E+00
4.83E+00
4.82E+00
4.79E+00
4.80E+00
4.82E+00
4.86E+00
4.87E+00
4.88E+00
4.89E+00
4.87E+00
4.80E+00
4.72E+00
4.69E+00
4.65E+00
4.65E+00
4.63E+00
4.66E+00
4.67E+00
4.64E+00
4.58E+00
4.52E+00
4.46E+00
4.41E+00
4.38E+00
4.38E+00
4.38E+00
4.35E+00
4.32E+00
4.27E+00
4.26E+00
4.28E+00
4.30E+00
4.33E+00
4.34E+00
4.36E+00
4.42E+00
4.51E+00
4.58E+00
4.64E+00
4.67E+00
4.69E+00
4.73E+00
4.79E+00
4.83E+00
4.84E+00
4.86E+00
4.86E+00
4.88E+00
4.89E+00
4.91E+00
4.91E+00
4.90E+00
4.90E+00
4.89E+00
4.91E+00
4.92E+00
4.94E+00
4.95E+00
4.94E+00
4.94E+00
4.94E+00
4.94E+00
4.93E+00
4.94E+00
4.94E+00
4.94E+00
4.95E+00
4.93E+00
4.93E+00
4.92E+00
4.92E+00
4.93E+00
4.94E+00
4.95E+00
4.94E+00
4.93E+00
4.94E+00
4.94E+00
4.95E+00
4.95E+00
4.96E+00
4.97E+00
4.96E+00
4.97E+00
4.97E+00
4.96E+00
4.96E+00
4.95E+00
4.95E+00
5.00E+00
5.01E+00
4.99E+00
4.98E+00
5.00E+00
5.03E+00
5.04E+00
5.04E+00
5.04E+00
5.02E+00
5.02E+00
5.02E+00
5.02E+00
5.04E+00
5.05E+00
5.04E+00
5.04E+00
5.02E+00
5.04E+00
5.06E+00
5.08E+00
5.11E+00
5.10E+00
5.08E+00
5.08E+00
5.09E+00
5.08E+00
5.07E+00
5.03E+00
5.04E+00
5.07E+00
5.10E+00
5.06E+00
5.04E+00
5.01E+00
5.01E+00
5.01E+00
5.02E+00
5.01E+00
5.00E+00
4.98E+00
4.96E+00
4.97E+00
4.99E+00
4.98E+00
4.97E+00
4.94E+00
4.94E+00
4.93E+00
4.95E+00
4.96E+00
4.96E+00
4.94E+00
4.93E+00
4.92E+00
4.93E+00
4.91E+00
4.89E+00
4.89E+00
4.90E+00
4.90E+00
4.91E+00
4.91E+00
4.88E+00
4.88E+00
4.89E+00
4.92E+00
4.92E+00
4.90E+00
4.90E+00
4.89E+00
4.88E+00
4.88E+00
4.88E+00
4.86E+00
4.85E+00
4.85E+00
4.88E+00
4.91E+00
4.89E+00
4.87E+00
4.85E+00
4.88E+00
4.89E+00
4.90E+00
4.91E+00
4.93E+00
4.90E+00
4.87E+00
4.88E+00
4.88E+00
4.88E+00
4.88E+00
4.88E+00
4.86E+00
4.86E+00
4.86E+00
4.86E+00
4.86E+00
4.85E+00
4.85E+00
4.81E+00
4.81E+00
4.81E+00
4.81E+00
4.83E+00
4.85E+00
4.85E+00
4.85E+00
4.83E+00
4.82E+00
4.80E+00
4.78E+00
4.76E+00
4.78E+00
4.81E+00
4.83E+00
4.85E+00
4.82E+00
4.80E+00
4.78E+00
4.80E+00
4.84E+00
4.83E+00
4.82E+00
4.78E+00
4.80E+00
4.81E+00
4.81E+00
4.81E+00
4.79E+00
4.77E+00
4.78E+00
4.79E+00
4.80E+00
4.81E+00
4.79E+00
4.80E+00
4.80E+00
4.82E+00
4.81E+00
4.81E+00
4.79E+00
4.79E+00
4.78E+00
4.79E+00
4.80E+00
4.78E+00
4.78E+00
4.80E+00
4.83E+00
4.85E+00
4.84E+00
4.82E+00
4.82E+00
4.83E+00
4.83E+00
4.83E+00
4.82E+00
4.81E+00
4.81E+00
4.81E+00
4.84E+00
4.85E+00
4.83E+00
4.80E+00
4.79E+00
4.79E+00
4.81E+00
4.82E+00
4.84E+00
4.83E+00
4.83E+00
4.81E+00
4.81E+00
4.82E+00
4.83E+00
4.80E+00
4.80E+00
4.79E+00
4.81E+00
4.82E+00
4.82E+00
4.81E+00
4.78E+00
4.77E+00
4.76E+00
4.79E+00
4.82E+00
4.82E+00
4.80E+00
4.81E+00
4.86E+00
4.88E+00
4.86E+00
4.82E+00
4.78E+00
4.78E+00
4.80E+00
4.83E+00
4.83E+00
4.82E+00
4.82E+00
4.81E+00
4.82E+00
4.83E+00
4.84E+00
4.83E+00
4.83E+00
4.81E+00
4.82E+00
4.83E+00
4.84E+00
4.83E+00
4.82E+00
4.81E+00
4.81E+00
4.82E+00
4.82E+00
4.82E+00
4.82E+00
4.82E+00
4.84E+00
4.86E+00
4.88E+00
4.87E+00
4.87E+00
4.86E+00
4.88E+00
4.90E+00
4.92E+00
4.92E+00
4.90E+00
4.91E+00
4.95E+00
4.98E+00
5.00E+00
4.99E+00
4.99E+00
5.00E+00
5.03E+00
5.04E+00
5.04E+00
5.02E+00
5.02E+00
5.03E+00
5.05E+00
5.07E+00
5.05E+00
5.01E+00
4.96E+00
4.92E+00
4.91E+00
4.89E+00
4.84E+00
4.77E+00
4.76E+00
4.77E+00
4.80E+00
4.83E+00
4.82E+00
4.80E+00
4.79E+00
4.77E+00
4.80E+00
4.79E+00
4.79E+00
4.79E+00
4.76E+00
4.76E+00
4.78E+00
4.79E+00
4.79E+00
4.77E+00
4.77E+00
4.77E+00
4.79E+00
4.81E+00
4.80E+00
4.80E+00
4.79E+00
4.77E+00
4.77E+00
4.77E+00
4.78E+00
4.77E+00
4.75E+00
4.75E+00
4.76E+00
4.79E+00
4.77E+00
4.76E+00
4.74E+00
4.72E+00
4.69E+00
4.70E+00
4.78E+00
4.84E+00
4.82E+00
4.81E+00
4.80E+00
4.79E+00
4.72E+00
4.63E+00
4.56E+00
4.54E+00
4.54E+00
4.55E+00
4.54E+00
4.51E+00
4.45E+00
4.40E+00
4.35E+00
4.33E+00
4.30E+00
4.24E+00
4.17E+00
4.13E+00
4.13E+00
4.19E+00
4.26E+00
4.28E+00
4.29E+00
4.33E+00
4.40E+00
4.49E+00
4.56E+00
4.60E+00
4.63E+00
4.69E+00
4.75E+00
4.80E+00
4.82E+00
4.83E+00
4.82E+00
4.80E+00
4.82E+00
4.84E+00
4.87E+00
4.87E+00
4.87E+00
4.87E+00
4.88E+00
4.90E+00
4.91E+00
4.89E+00
4.85E+00
4.84E+00
4.84E+00
4.86E+00
4.86E+00
4.86E+00
4.85E+00
4.85E+00
4.86E+00
4.89E+00
4.89E+00
4.88E+00
4.88E+00
4.86E+00
4.87E+00
4.86E+00
4.88E+00
4.91E+00
4.91E+00
4.89E+00
4.88E+00
4.85E+00
4.82E+00
4.80E+00
4.84E+00
4.91E+00
4.94E+00
4.91E+00
4.88E+00
4.86E+00
4.85E+00
4.78E+00
4.74E+00
4.80E+00
4.88E+00
4.96E+00
5.07E+00
5.14E+00
5.13E+00
5.06E+00
5.03E+00
5.00E+00
4.98E+00
4.95E+00
4.94E+00
4.93E+00
4.91E+00
4.87E+00
4.83E+00
4.84E+00
4.91E+00
4.98E+00
5.00E+00
5.02E+00
5.01E+00
5.00E+00
5.01E+00
4.96E+00
4.81E+00
4.61E+00
4.55E+00
4.61E+00
4.71E+00
4.86E+00
5.01E+00
5.06E+00
5.04E+00
5.04E+00
5.02E+00
4.87E+00
4.66E+00
4.54E+00
4.56E+00
4.70E+00
4.95E+00
5.16E+00
5.20E+00
5.09E+00
4.90E+00
4.73E+00
4.55E+00
4.43E+00
4.45E+00
4.61E+00
4.82E+00
4.99E+00
5.08E+00
5.03E+00
4.90E+00
4.80E+00
4.69E+00
4.55E+00
4.42E+00
4.43E+00
4.65E+00
4.96E+00
5.14E+00
5.12E+00
4.98E+00
4.80E+00
4.69E+00
4.72E+00
4.79E+00
4.68E+00
4.42E+00
4.26E+00
4.38E+00
4.76E+00
5.08E+00
5.18E+00
5.20E+00
5.19E+00
5.13E+00
4.98E+00
4.87E+00
4.81E+00
4.79E+00
4.75E+00
4.65E+00
4.52E+00
4.48E+00
4.55E+00
4.75E+00
4.97E+00
5.03E+00
4.92E+00
4.84E+00
4.90E+00
4.98E+00
4.96E+00
4.80E+00
4.63E+00
4.51E+00
4.63E+00
4.85E+00
4.95E+00
4.87E+00
4.71E+00
4.63E+00
4.72E+00
4.91E+00
5.05E+00
5.03E+00
4.87E+00
4.74E+00
4.74E+00
4.83E+00
4.87E+00
4.82E+00
4.80E+00
4.79E+00
4.80E+00
4.83E+00
4.82E+00
4.84E+00
4.83E+00
4.80E+00
4.71E+00
4.62E+00
4.58E+00
4.60E+00
4.72E+00
4.76E+00
4.76E+00
4.82E+00
4.83E+00
4.76E+00
4.71E+00
4.77E+00
4.86E+00
5.00E+00
5.12E+00
5.10E+00
5.01E+00
4.87E+00
4.75E+00
4.68E+00
4.62E+00
4.68E+00
4.82E+00
4.96E+00
5.03E+00
5.03E+00
4.92E+00
4.74E+00
4.56E+00
4.50E+00
4.66E+00
4.95E+00
5.16E+00
5.13E+00
4.93E+00
4.84E+00
4.89E+00
4.93E+00
4.93E+00
4.87E+00
4.83E+00
4.83E+00
4.85E+00
4.87E+00
4.85E+00
4.86E+00
4.92E+00
4.99E+00
4.99E+00
4.94E+00
4.90E+00
4.87E+00
4.84E+00
4.80E+00
4.79E+00
4.80E+00
4.81E+00
4.76E+00
4.72E+00
4.75E+00
4.86E+00
4.94E+00
4.95E+00
4.85E+00
4.73E+00
4.73E+00
4.78E+00
4.85E+00
4.89E+00
4.95E+00
4.98E+00
4.97E+00
4.90E+00
4.87E+00
4.77E+00
4.69E+00
4.69E+00
4.86E+00
5.09E+00
5.22E+00
5.16E+00
5.03E+00
4.96E+00
4.93E+00
4.88E+00
4.85E+00
4.83E+00
4.83E+00
4.80E+00
4.79E+00
4.82E+00
4.82E+00
4.74E+00
4.72E+00
4.93E+00
5.17E+00
5.22E+00
5.21E+00
5.20E+00
5.18E+00
5.14E+00
5.08E+00
5.00E+00
4.92E+00
4.94E+00
5.05E+00
5.19E+00
5.23E+00
5.21E+00
5.14E+00
5.05E+00
4.98E+00
4.92E+00
4.80E+00
4.63E+00
4.54E+00
4.66E+00
4.91E+00
5.05E+00
4.98E+00
4.81E+00
4.75E+00
4.82E+00
4.91E+00
4.94E+00
4.92E+00
4.88E+00
4.80E+00
4.74E+00
4.73E+00
4.72E+00
4.73E+00
4.81E+00
4.93E+00
5.00E+00
5.00E+00
4.92E+00
4.80E+00
4.75E+00
4.76E+00
4.79E+00
4.86E+00
4.92E+00
4.93E+00
4.88E+00
4.83E+00
4.76E+00
4.72E+00
4.76E+00
4.86E+00
4.94E+00
4.90E+00
4.76E+00
4.68E+00
4.71E+00
4.84E+00
4.94E+00
4.99E+00
4.95E+00
4.82E+00
4.70E+00
4.72E+00
4.79E+00
4.78E+00
4.71E+00
4.71E+00
4.75E+00
4.69E+00
4.57E+00
4.47E+00
4.41E+00
4.47E+00
4.55E+00
4.51E+00
4.40E+00
4.34E+00
4.29E+00
4.28E+00
4.32E+00
4.34E+00
4.35E+00
4.41E+00
4.53E+00
4.66E+00
4.69E+00
4.65E+00
4.61E+00
4.71E+00
4.91E+00
5.04E+00
5.02E+00
4.95E+00
4.90E+00
4.89E+00
4.91E+00
4.91E+00
4.89E+00
4.87E+00
4.89E+00
4.90E+00
4.92E+00
4.92E+00
4.93E+00
4.98E+00
4.99E+00
4.97E+00
4.96E+00
4.96E+00
4.98E+00
4.93E+00
4.87E+00
4.86E+00
4.87E+00
4.91E+00
4.97E+00
5.01E+00
5.00E+00
4.97E+00
4.93E+00
4.93E+00
4.93E+00
4.96E+00
4.99E+00
5.02E+00
5.03E+00
4.99E+00
4.96E+00
4.94E+00
4.96E+00
4.99E+00
5.00E+00
4.97E+00
4.98E+00
4.99E+00
5.01E+00
5.05E+00
5.08E+00
5.07E+00
5.02E+00
4.96E+00
4.95E+00
4.98E+00
5.05E+00
5.12E+00
5.11E+00
5.06E+00
5.02E+00
5.05E+00
5.09E+00
5.08E+00
5.05E+00
5.04E+00
5.05E+00
5.08E+00
5.08E+00
5.06E+00
5.06E+00
5.10E+00
5.10E+00
5.09E+00
5.10E+00
5.08E+00
5.04E+00
5.02E+00
5.01E+00
5.04E+00
5.08E+00
5.08E+00
5.04E+00
5.01E+00
5.00E+00
5.00E+00
4.99E+00
4.98E+00
4.98E+00
4.96E+00
4.95E+00
4.95E+00
4.95E+00
4.97E+00
4.94E+00
4.92E+00
4.92E+00
4.95E+00
4.97E+00
4.94E+00
4.90E+00
4.90E+00
4.92E+00
4.96E+00
4.96E+00
4.94E+00
4.93E+00
4.91E+00
4.87E+00
4.88E+00
4.90E+00
4.90E+00
4.91E+00
4.90E+00
4.89E+00
4.89E+00
4.88E+00
4.87E+00
4.87E+00
4.87E+00
4.89E+00
4.89E+00
4.91E+00
4.92E+00
4.92E+00
4.90E+00
4.87E+00
4.86E+00
4.86E+00
4.89E+00
4.87E+00
4.85E+00
4.84E+00
4.83E+00
4.84E+00
4.86E+00
4.86E+00
4.84E+00
4.84E+00
4.85E+00
4.86E+00
4.86E+00
4.85E+00
4.83E+00
4.82E+00
4.81E+00
4.82E+00
4.84E+00
4.84E+00
4.83E+00
4.81E+00
4.82E+00
4.84E+00
4.83E+00
4.81E+00
4.78E+00
4.80E+00
4.81E+00
4.83E+00
4.82E+00
4.79E+00
4.76E+00
4.75E+00
4.77E+00
4.79E+00
4.79E+00
4.77E+00
4.77E+00
4.76E+00
4.78E+00
4.79E+00
4.78E+00
4.77E+00
4.77E+00
4.76E+00
4.78E+00
4.79E+00
4.77E+00
4.78E+00
4.77E+00
4.76E+00
4.77E+00
4.76E+00
4.75E+00
4.74E+00
4.74E+00
4.75E+00
4.75E+00
4.74E+00
4.75E+00
4.78E+00
4.80E+00
4.80E+00
4.82E+00
4.86E+00
4.84E+00
4.79E+00
4.76E+00
4.76E+00
4.78E+00
4.80E+00
4.78E+00
4.77E+00
4.79E+00
4.80E+00
4.81E+00
4.83E+00
4.81E+00
4.81E+00
4.78E+00
4.77E+00
4.78E+00
4.79E+00
4.78E+00
4.76E+00
4.77E+00
4.76E+00
4.79E+00
4.81E+00
4.81E+00
4.79E+00
4.78E+00
4.77E+00
4.80E+00
4.82E+00
4.82E+00
4.80E+00
4.78E+00
4.78E+00
4.78E+00
4.79E+00
4.78E+00
4.78E+00
4.78E+00
4.79E+00
4.82E+00
4.83E+00
4.82E+00
4.80E+00
4.76E+00
4.75E+00
4.78E+00
4.81E+00
4.83E+00
4.81E+00
4.81E+00
4.81E+00
4.82E+00
4.80E+00
4.79E+00
4.78E+00
4.80E+00
4.81E+00
4.83E+00
4.82E+00
4.80E+00
4.79E+00
4.78E+00
4.79E+00
4.81E+00
4.84E+00
4.83E+00
4.79E+00
4.79E+00
4.80E+00
4.84E+00
4.89E+00
4.93E+00
4.94E+00
4.90E+00
4.84E+00
4.82E+00
4.82E+00
4.84E+00
4.88E+00
4.90E+00
4.93E+00
4.97E+00
5.01E+00
5.01E+00
5.00E+00
4.99E+00
4.98E+00
4.99E+00
5.02E+00
5.03E+00
5.03E+00
5.03E+00
5.02E+00
5.01E+00
5.00E+00
4.96E+00
4.91E+00
4.86E+00
4.82E+00
4.80E+00
4.79E+00
4.77E+00
4.75E+00
4.76E+00
4.77E+00
4.79E+00
4.79E+00
4.76E+00
4.73E+00
4.72E+00
4.70E+00
4.72E+00
4.77E+00
4.79E+00
4.80E+00
4.77E+00
4.75E+00
4.74E+00
4.77E+00
4.77E+00
4.76E+00
4.75E+00
4.74E+00
4.76E+00
4.75E+00
4.79E+00
4.79E+00
4.77E+00
4.76E+00
4.76E+00
4.77E+00
4.78E+00
4.77E+00
4.75E+00
4.74E+00
4.73E+00
4.74E+00
4.76E+00
4.76E+00
4.76E+00
4.76E+00
4.77E+00
4.79E+00
4.83E+00
4.84E+00
4.84E+00
4.82E+00
4.83E+00
4.79E+00
4.71E+00
4.64E+00
4.62E+00
4.61E+00
4.62E+00
4.61E+00
4.62E+00
4.57E+00
4.50E+00
4.47E+00
4.45E+00
4.42E+00
4.35E+00
4.29E+00
4.25E+00
4.23E+00
4.22E+00
4.22E+00
4.22E+00
4.24E+00
4.26E+00
4.30E+00
4.34E+00
4.40E+00
4.48E+00
4.54E+00
4.56E+00
4.60E+00
4.65E+00
4.72E+00
4.78E+00
4.80E+00
4.78E+00
4.78E+00
4.81E+00
4.84E+00
4.85E+00
4.85E+00
4.82E+00
4.82E+00
4.84E+00
4.85E+00
4.87E+00
4.87E+00
4.88E+00
4.86E+00
4.87E+00
4.88E+00
4.86E+00
4.85E+00
4.85E+00
4.84E+00
4.87E+00
4.89E+00
4.89E+00
4.86E+00
4.86E+00
4.88E+00
4.89E+00
4.90E+00
4.88E+00
4.86E+00
4.87E+00
4.86E+00
4.86E+00
4.87E+00
4.89E+00
4.90E+00
4.91E+00
4.92E+00
4.94E+00
4.96E+00
4.94E+00
4.94E+00
4.91E+00
4.88E+00
4.91E+00
4.92E+00
4.95E+00
4.94E+00
4.94E+00
4.93E+00
4.93E+00
4.95E+00
4.96E+00
4.97E+00
4.96E+00
4.95E+00
4.95E+00
4.97E+00
5.00E+00
5.00E+00
5.00E+00
4.98E+00
4.98E+00
5.00E+00
5.00E+00
5.01E+00
5.01E+00
5.00E+00
5.00E+00
5.00E+00
5.01E+00
5.00E+00
4.99E+00
4.97E+00
4.97E+00
4.99E+00
5.00E+00
4.99E+00
4.99E+00
4.99E+00
5.01E+00
5.02E+00
5.01E+00
4.98E+00
4.95E+00
4.93E+00
4.96E+00
5.00E+00
5.00E+00
4.97E+00
4.95E+00
4.94E+00
4.93E+00
4.93E+00
4.94E+00
4.93E+00
4.90E+00
4.90E+00
4.92E+00
4.92E+00
4.92E+00
4.89E+00
4.87E+00
4.87E+00
4.91E+00
4.92E+00
4.92E+00
4.91E+00
4.90E+00
4.89E+00
4.88E+00
4.89E+00
4.87E+00
4.86E+00
4.84E+00
4.83E+00
4.83E+00
4.84E+00
4.86E+00
4.86E+00
4.87E+00
4.86E+00
4.86E+00
4.87E+00
4.88E+00
4.88E+00
4.87E+00
4.85E+00
4.85E+00
4.87E+00
4.89E+00
4.89E+00
4.88E+00
4.88E+00
4.87E+00
4.88E+00
4.86E+00
4.84E+00
4.82E+00
4.81E+00
4.82E+00
4.82E+00
4.84E+00
4.87E+00
4.91E+00
4.92E+00
4.92E+00
4.94E+00
4.92E+00
4.90E+00
4.89E+00
4.89E+00
4.92E+00
4.95E+00
5.02E+00
5.07E+00
5.17E+00
5.28E+00
5.46E+00
5.65E+00
5.81E+00
5.96E+00
6.08E+00
6.16E+00
6.20E+00
6.17E+00
6.13E+00
6.08E+00
6.07E+00
5.99E+00
5.86E+00
5.65E+00
5.44E+00
5.28E+00
5.20E+00
5.16E+00
5.15E+00
5.10E+00
4.99E+00
4.91E+00
4.85E+00
4.78E+00
4.68E+00
4.62E+00
4.62E+00
4.67E+00
4.68E+00
4.63E+00
4.56E+00
4.50E+00
4.50E+00
4.52E+00
4.55E+00
4.56E+00
4.58E+00
4.60E+00
4.59E+00
4.58E+00
4.57E+00
4.57E+00
4.58E+00
4.58E+00
4.57E+00
4.56E+00
4.54E+00
4.53E+00
4.53E+00
4.54E+00
4.52E+00
4.51E+00
4.49E+00
4.49E+00
4.50E+00
4.50E+00
4.48E+00
4.47E+00
4.47E+00
4.45E+00
4.46E+00
4.46E+00
4.46E+00
4.44E+00
4.43E+00
4.43E+00
4.44E+00
4.46E+00
4.43E+00
4.42E+00
4.40E+00
4.39E+00
4.40E+00
4.40E+00
4.39E+00
4.38E+00
4.38E+00
4.39E+00
4.40E+00
4.39E+00
4.38E+00
4.37E+00
4.37E+00
4.37E+00
4.36E+00
4.35E+00
4.34E+00
4.35E+00
4.37E+00
4.38E+00
4.40E+00
4.41E+00
4.43E+00
4.42E+00
4.42E+00
4.42E+00
4.43E+00
4.45E+00
4.46E+00
4.47E+00
4.47E+00
4.48E+00
4.50E+00
4.51E+00
4.51E+00
4.53E+00
4.52E+00
4.55E+00
4.58E+00
4.60E+00
4.60E+00
4.62E+00
4.63E+00
4.66E+00
4.70E+00
4.72E+00
4.75E+00
4.78E+00
4.79E+00
4.80E+00
4.83E+00
4.84E+00
4.88E+00
4.88E+00
4.85E+00
4.87E+00
4.89E+00
4.91E+00
4.91E+00
4.91E+00
4.93E+00
4.96E+00
4.98E+00
5.01E+00
5.02E+00
5.00E+00
4.93E+00
4.90E+00
4.89E+00
4.89E+00
4.86E+00
4.82E+00
4.78E+00
4.75E+00
4.76E+00
4.78E+00
4.78E+00
4.78E+00
4.78E+00
4.76E+00
4.77E+00
4.78E+00
4.77E+00
4.78E+00
4.79E+00
4.81E+00
4.83E+00
4.84E+00
4.83E+00
4.79E+00
4.79E+00
4.79E+00
4.81E+00
4.83E+00
4.82E+00
4.80E+00
4.81E+00
4.81E+00
4.83E+00
4.84E+00
4.83E+00
4.82E+00
4.83E+00
4.82E+00
4.83E+00
4.84E+00
4.84E+00
4.83E+00
4.83E+00
4.83E+00
4.86E+00
4.87E+00
4.87E+00
4.85E+00
4.87E+00
4.89E+00
4.90E+00
4.88E+00
4.88E+00
4.86E+00
4.86E+00
4.86E+00
4.87E+00
4.86E+00
4.85E+00
4.84E+00
4.85E+00
4.87E+00
4.90E+00
4.91E+00
4.89E+00
4.88E+00
4.87E+00
4.89E+00
4.92E+00
4.94E+00
4.94E+00
4.91E+00
4.90E+00
4.88E+00
4.90E+00
4.90E+00
4.91E+00
4.89E+00
4.88E+00
4.85E+00
4.88E+00
4.88E+00
4.89E+00
4.91E+00
4.93E+00
4.92E+00
4.92E+00
4.92E+00
4.92E+00
4.91E+00
4.91E+00
4.90E+00
4.91E+00
4.91E+00
4.92E+00
4.91E+00
4.91E+00
4.91E+00
4.90E+00
4.90E+00
4.91E+00
4.88E+00
4.89E+00
4.87E+00
4.88E+00
4.91E+00
4.93E+00
4.91E+00
4.90E+00
4.89E+00
4.90E+00
4.91E+00
4.91E+00
4.92E+00
4.93E+00
4.93E+00
4.93E+00
4.92E+00
4.91E+00
4.91E+00
4.91E+00
4.91E+00
4.93E+00
4.93E+00
4.93E+00
4.92E+00
4.91E+00
4.91E+00
4.92E+00
4.92E+00
4.92E+00
4.94E+00
4.95E+00
4.95E+00
4.92E+00
4.94E+00
4.94E+00
4.92E+00
4.93E+00
4.92E+00
4.93E+00
4.95E+00
4.95E+00
4.94E+00
4.93E+00
4.93E+00
4.95E+00
4.95E+00
4.94E+00
4.93E+00
4.93E+00
4.93E+00
4.95E+00
4.94E+00
4.93E+00
4.91E+00
4.91E+00
4.89E+00
4.92E+00
4.95E+00
4.96E+00
4.95E+00
4.93E+00
4.93E+00
4.94E+00
4.95E+00
4.94E+00
4.92E+00
4.91E+00
4.91E+00
4.93E+00
4.94E+00
4.92E+00
4.92E+00
4.92E+00
4.92E+00
4.94E+00
4.95E+00
4.94E+00
4.92E+00
4.92E+00
4.92E+00
4.92E+00
4.91E+00
4.92E+00
4.93E+00
4.94E+00
4.96E+00
4.98E+00
4.97E+00
4.96E+00
4.95E+00
4.94E+00
4.92E+00
4.91E+00
4.94E+00
4.95E+00
4.95E+00
4.94E+00
4.92E+00
4.92E+00
4.93E+00
4.93E+00
4.95E+00
4.93E+00
4.91E+00
4.93E+00
4.93E+00
4.94E+00
4.94E+00
4.94E+00
4.93E+00
4.94E+00
4.97E+00
4.96E+00
4.96E+00
4.92E+00
4.92E+00
4.91E+00
4.93E+00
4.94E+00
4.94E+00
4.94E+00
4.93E+00
4.94E+00
4.95E+00
4.95E+00
4.94E+00
4.92E+00
4.90E+00
4.93E+00
4.94E+00
4.95E+00
4.94E+00
4.93E+00
4.93E+00
4.92E+00
4.93E+00
4.93E+00
4.94E+00
4.92E+00
4.90E+00
4.92E+00
4.95E+00
4.95E+00
4.95E+00
4.94E+00
4.93E+00
4.94E+00
4.95E+00
4.95E+00
4.93E+00
4.93E+00
4.94E+00
4.96E+00
4.96E+00
4.96E+00
4.95E+00
4.95E+00
4.94E+00
4.95E+00
4.94E+00
4.93E+00
4.91E+00
4.91E+00
4.91E+00
4.91E+00
4.92E+00
4.92E+00
4.93E+00
4.94E+00
4.94E+00
4.93E+00
4.91E+00
4.91E+00
4.91E+00
4.92E+00
4.94E+00
4.94E+00
4.95E+00
4.95E+00
4.95E+00
4.94E+00
4.93E+00
4.92E+00
4.94E+00
4.95E+00
4.93E+00
4.92E+00
4.91E+00
4.93E+00
4.94E+00
4.94E+00
4.92E+00
4.92E+00
4.92E+00
4.92E+00
4.94E+00
4.93E+00
4.92E+00
4.92E+00
4.91E+00
4.93E+00
4.92E+00
4.93E+00
4.93E+00
4.90E+00
4.90E+00
4.90E+00
4.92E+00
4.94E+00
4.92E+00
4.92E+00
4.92E+00
4.92E+00
4.94E+00
4.93E+00
4.91E+00
4.90E+00
4.91E+00
4.92E+00
4.93E+00
4.94E+00
4.94E+00
4.93E+00
4.90E+00
4.90E+00
4.93E+00
4.93E+00
4.94E+00
4.92E+00
4.91E+00
4.92E+00
4.93E+00
4.93E+00
4.92E+00
4.92E+00
4.91E+00
4.91E+00
4.94E+00
4.94E+00
4.95E+00
4.94E+00
4.92E+00
4.93E+00
4.94E+00
4.95E+00
4.94E+00
4.92E+00
4.93E+00
4.96E+00
4.98E+00
4.98E+00
4.97E+00
4.97E+00
4.98E+00
5.00E+00
5.01E+00
5.01E+00
5.02E+00
5.07E+00
5.07E+00
5.10E+00
5.11E+00
5.13E+00
5.13E+00
5.12E+00
5.13E+00
5.12E+00
5.13E+00
5.13E+00
5.14E+00
5.13E+00
5.15E+00
5.17E+00
5.18E+00
5.14E+00
5.08E+00
5.01E+00
4.98E+00
4.99E+00
4.98E+00
4.92E+00
4.88E+00
4.87E+00
4.87E+00
4.90E+00
4.89E+00
4.87E+00
4.86E+00
4.85E+00
4.88E+00
4.91E+00
4.91E+00
4.90E+00
4.87E+00
4.86E+00
4.88E+00
4.89E+00
4.89E+00
4.86E+00
4.86E+00
4.85E+00
4.86E+00
4.88E+00
4.90E+00
4.91E+00
4.89E+00
4.89E+00
4.89E+00
4.91E+00
4.90E+00
4.88E+00
4.87E+00
4.88E+00
4.88E+00
4.88E+00
4.90E+00
4.89E+00
4.89E+00
4.90E+00
4.89E+00
4.89E+00
4.87E+00
4.89E+00
4.93E+00
4.95E+00
4.93E+00
4.93E+00
4.97E+00
5.00E+00
4.97E+00
4.88E+00
4.78E+00
4.73E+00
4.72E+00
4.70E+00
4.68E+00
4.63E+00
4.55E+00
4.53E+00
4.54E+00
4.50E+00
4.47E+00
4.44E+00
4.39E+00
4.35E+00
4.31E+00
4.31E+00
4.30E+00
4.33E+00
4.35E+00
4.41E+00
4.44E+00
4.48E+00
4.54E+00
4.60E+00
4.66E+00
4.73E+00
4.80E+00
4.86E+00
4.89E+00
4.91E+00
4.92E+00
4.94E+00
4.96E+00
4.96E+00
4.96E+00
4.94E+00
4.95E+00
4.96E+00
4.97E+00
4.98E+00
4.98E+00
4.98E+00
4.97E+00
4.97E+00
4.98E+00
4.98E+00
4.98E+00
5.00E+00
4.99E+00
5.01E+00
5.02E+00
5.02E+00
5.00E+00
4.97E+00
4.96E+00
5.00E+00
5.00E+00
4.98E+00
4.97E+00
4.99E+00
4.99E+00
4.98E+00
4.99E+00
5.00E+00
5.02E+00
5.02E+00
5.01E+00
5.01E+00
5.01E+00
5.01E+00
5.02E+00
5.01E+00
5.01E+00
5.01E+00
5.03E+00
5.03E+00
5.05E+00
5.04E+00
5.04E+00
5.04E+00
5.05E+00
5.05E+00
5.03E+00
5.03E+00
5.03E+00
5.03E+00
5.05E+00
5.04E+00
5.05E+00
5.04E+00
5.04E+00
5.04E+00
5.05E+00
5.06E+00
5.06E+00
5.04E+00
5.02E+00
5.03E+00
5.05E+00
5.06E+00
5.07E+00
5.07E+00
5.06E+00
5.07E+00
5.07E+00
5.07E+00
5.06E+00
5.04E+00
5.03E+00
5.02E+00
5.01E+00
5.03E+00
5.03E+00
5.01E+00
5.00E+00
5.02E+00
5.06E+00
5.06E+00
5.03E+00
5.00E+00
4.99E+00
5.01E+00
5.03E+00
5.02E+00
4.98E+00
4.96E+00
4.97E+00
5.00E+00
5.02E+00
5.00E+00
4.98E+00
4.96E+00
4.95E+00
4.97E+00
4.99E+00
5.01E+00
4.99E+00
4.99E+00
4.96E+00
4.96E+00
4.97E+00
4.98E+00
4.96E+00
4.95E+00
4.94E+00
4.95E+00
4.99E+00
4.99E+00
4.98E+00
4.96E+00
4.94E+00
4.93E+00
4.94E+00
4.95E+00
4.96E+00
4.98E+00
4.97E+00
4.96E+00
4.97E+00
4.95E+00
4.92E+00
4.92E+00
4.94E+00
4.99E+00
5.00E+00
4.99E+00
4.97E+00
4.97E+00
4.96E+00
4.95E+00
4.95E+00
4.95E+00
4.94E+00
4.93E+00
4.92E+00
4.94E+00
4.93E+00
4.93E+00
4.91E+00
4.93E+00
4.92E+00
4.93E+00
4.92E+00
4.92E+00
4.92E+00
4.93E+00
4.91E+00
4.91E+00
4.91E+00
4.91E+00
4.91E+00
4.90E+00
4.89E+00
4.89E+00
4.90E+00
4.89E+00
4.88E+00
4.86E+00
4.87E+00
4.87E+00
4.88E+00
4.87E+00
4.86E+00
4.85E+00
4.86E+00
4.86E+00
4.87E+00
4.88E+00
4.89E+00
4.89E+00
4.86E+00
4.88E+00
4.88E+00
4.90E+00
4.91E+00
4.88E+00
4.88E+00
4.87E+00
4.89E+00
4.90E+00
4.90E+00
4.90E+00
4.90E+00
4.93E+00
4.93E+00
4.92E+00
4.90E+00
4.88E+00
4.86E+00
4.89E+00
4.89E+00
4.90E+00
4.90E+00
4.89E+00
4.91E+00
4.91E+00
4.94E+00
4.93E+00
4.93E+00
4.92E+00
4.92E+00
4.92E+00
4.94E+00
4.94E+00
4.93E+00
4.93E+00
4.91E+00
4.93E+00
4.93E+00
4.94E+00
4.93E+00
4.91E+00
4.91E+00
4.91E+00
4.94E+00
4.97E+00
4.98E+00
4.96E+00
4.94E+00
4.94E+00
4.95E+00
4.94E+00
4.93E+00
4.91E+00
4.92E+00
4.94E+00
4.96E+00
4.96E+00
4.94E+00
4.92E+00
4.91E+00
4.91E+00
4.93E+00
4.92E+00
4.94E+00
4.93E+00
4.95E+00
4.96E+00
4.96E+00
4.94E+00
4.93E+00
4.93E+00
4.94E+00
4.96E+00
4.99E+00
4.99E+00
4.96E+00
4.94E+00
4.94E+00
4.97E+00
5.01E+00
5.04E+00
5.02E+00
5.03E+00
5.02E+00
5.02E+00
5.05E+00
5.08E+00
5.08E+00
5.08E+00
5.09E+00
5.12E+00
5.15E+00
5.15E+00
5.15E+00
5.14E+00
5.13E+00
5.14E+00
5.18E+00
5.20E+00
5.20E+00
5.18E+00
5.14E+00
5.08E+00
5.07E+00
5.03E+00
4.98E+00
4.94E+00
4.90E+00
4.88E+00
4.89E+00
4.89E+00
4.89E+00
4.90E+00
4.91E+00
4.90E+00
4.88E+00
4.87E+00
4.87E+00
4.88E+00
4.89E+00
4.88E+00
4.89E+00
4.87E+00
4.88E+00
4.87E+00
4.87E+00
4.90E+00
4.92E+00
4.91E+00
4.89E+00
4.88E+00
4.87E+00
4.87E+00
4.88E+00
4.88E+00
4.88E+00
4.89E+00
4.88E+00
4.89E+00
4.90E+00
4.89E+00
4.90E+00
4.92E+00
4.92E+00
4.89E+00
4.88E+00
4.86E+00
4.87E+00
4.87E+00
4.90E+00
4.90E+00
4.91E+00
4.89E+00
4.84E+00
4.75E+00
4.67E+00
4.65E+00
4.65E+00
4.64E+00
4.64E+00
4.59E+00
4.51E+00
4.46E+00
4.45E+00
4.41E+00
4.37E+00
4.32E+00
4.27E+00
4.26E+00
4.25E+00
4.24E+00
4.23E+00
4.27E+00
4.31E+00
4.36E+00
4.40E+00
4.46E+00
4.54E+00
4.61E+00
4.64E+00
4.70E+00
4.78E+00
4.83E+00
4.86E+00
4.87E+00
4.89E+00
4.92E+00
4.96E+00
4.98E+00
4.99E+00
4.97E+00
4.95E+00
4.95E+00
4.98E+00
4.98E+00
4.98E+00
4.97E+00
4.96E+00
4.99E+00
4.98E+00
4.99E+00
4.98E+00
5.00E+00
4.99E+00
5.00E+00
5.00E+00
4.99E+00
4.98E+00
4.98E+00
4.99E+00
5.01E+00
5.04E+00
5.02E+00
5.00E+00
4.99E+00
4.99E+00
5.00E+00
5.02E+00
5.03E+00
5.03E+00
5.02E+00
5.00E+00
5.03E+00
5.04E+00
5.03E+00
5.02E+00
5.04E+00
5.03E+00
5.03E+00
5.07E+00
5.08E+00
5.08E+00
5.06E+00
5.06E+00
5.07E+00
5.10E+00
5.10E+00
5.10E+00
5.09E+00
5.10E+00
5.10E+00
5.11E+00
5.11E+00
5.10E+00
5.11E+00
5.11E+00
5.12E+00
5.12E+00
5.12E+00
5.10E+00
5.10E+00
5.08E+00
5.08E+00
5.11E+00
5.12E+00
5.13E+00
5.14E+00
5.12E+00
5.11E+00
5.12E+00
5.12E+00
5.12E+00
5.11E+00
5.10E+00
5.10E+00
5.11E+00
5.11E+00
5.09E+00
5.09E+00
5.08E+00
5.07E+00
5.07E+00
5.06E+00
5.07E+00
5.06E+00
5.03E+00
5.02E+00
5.03E+00
5.00E+00
5.01E+00
4.99E+00
5.00E+00
5.00E+00
5.00E+00
4.99E+00
4.97E+00
4.96E+00
4.96E+00
4.97E+00
4.98E+00
4.98E+00
4.98E+00
4.97E+00
4.96E+00
4.97E+00
4.98E+00
4.98E+00
4.96E+00
4.95E+00
4.95E+00
4.95E+00
4.98E+00
4.98E+00
4.97E+00
4.95E+00
4.93E+00
4.93E+00
4.95E+00
4.97E+00
4.96E+00
4.96E+00
4.94E+00
4.95E+00
4.95E+00
4.94E+00
4.95E+00
4.95E+00
4.93E+00
4.93E+00
4.93E+00
4.95E+00
4.95E+00
4.95E+00
4.93E+00
4.93E+00
4.94E+00
4.94E+00
4.93E+00
4.93E+00
4.93E+00
4.92E+00
4.92E+00
4.91E+00
4.90E+00
4.90E+00
4.88E+00
4.90E+00
4.93E+00
4.92E+00
4.93E+00
4.93E+00
4.92E+00
4.91E+00
4.90E+00
4.90E+00
4.89E+00
4.87E+00
4.86E+00
4.88E+00
4.90E+00
4.92E+00
4.91E+00
4.88E+00
4.88E+00
4.89E+00
4.91E+00
4.91E+00
4.90E+00
4.88E+00
4.87E+00
4.87E+00
4.89E+00
4.89E+00
4.88E+00
4.89E+00
4.89E+00
4.88E+00
4.89E+00
4.91E+00
4.90E+00
4.90E+00
4.90E+00
4.90E+00
4.88E+00
4.87E+00
4.88E+00
4.89E+00
4.89E+00
4.88E+00
4.88E+00
4.90E+00
4.91E+00
4.91E+00
4.89E+00
4.91E+00
4.92E+00
4.92E+00
4.90E+00
4.88E+00
4.86E+00
4.86E+00
4.89E+00
4.89E+00
4.91E+00
4.92E+00
4.91E+00
4.93E+00
4.93E+00
4.94E+00
4.94E+00
4.92E+00
4.89E+00
4.89E+00
4.91E+00
4.91E+00
4.91E+00
4.91E+00
4.90E+00
4.91E+00
4.91E+00
4.91E+00
4.90E+00
4.88E+00
4.88E+00
4.92E+00
4.96E+00
4.97E+00
4.96E+00
4.93E+00
4.92E+00
4.92E+00
4.94E+00
4.95E+00
4.95E+00
4.95E+00
4.95E+00
4.96E+00
4.96E+00
4.96E+00
4.96E+00
4.97E+00
4.96E+00
4.98E+00
4.99E+00
5.01E+00
5.02E+00
5.00E+00
5.03E+00
5.05E+00
5.09E+00
5.12E+00
5.11E+00
5.11E+00
5.12E+00
5.15E+00
5.17E+00
5.16E+00
5.15E+00
5.16E+00
5.18E+00
5.19E+00
5.21E+00
5.20E+00
5.16E+00
5.11E+00
5.06E+00
5.04E+00
5.01E+00
4.97E+00
4.93E+00
4.91E+00
4.90E+00
4.89E+00
4.91E+00
4.91E+00
4.92E+00
4.91E+00
4.91E+00
4.91E+00
4.93E+00
4.92E+00
4.91E+00
4.91E+00
4.89E+00
4.90E+00
4.91E+00
4.92E+00
4.91E+00
4.89E+00
4.90E+00
4.90E+00
4.93E+00
4.90E+00
4.90E+00
4.91E+00
4.91E+00
4.90E+00
4.91E+00
4.91E+00
4.92E+00
4.90E+00
4.90E+00
4.92E+00
4.92E+00
4.93E+00
4.94E+00
4.94E+00
4.93E+00
4.92E+00
4.91E+00
4.90E+00
4.90E+00
4.92E+00
4.96E+00
4.98E+00
4.97E+00
4.94E+00
4.91E+00
4.84E+00
4.76E+00
4.73E+00
4.73E+00
4.70E+00
4.69E+00
4.69E+00
4.63E+00
4.57E+00
4.56E+00
4.55E+00
4.53E+00
4.48E+00
4.41E+00
4.36E+00
4.33E+00
4.32E+00
4.28E+00
4.28E+00
4.32E+00
4.37E+00
4.42E+00
4.47E+00
4.52E+00
4.59E+00
4.65E+00
4.71E+00
4.77E+00
4.81E+00
4.84E+00
4.87E+00
4.91E+00
4.94E+00
4.97E+00
4.98E+00
4.96E+00
4.93E+00
4.94E+00
4.97E+00
5.04E+00
5.06E+00
5.07E+00
5.06E+00
5.03E+00
5.03E+00
5.03E+00
5.02E+00
5.03E+00
5.02E+00
5.02E+00
5.03E+00
5.04E+00
5.03E+00
5.02E+00
5.00E+00
5.00E+00
5.04E+00
5.07E+00
5.08E+00
5.07E+00
5.05E+00
5.04E+00
5.05E+00
5.05E+00
5.06E+00
5.07E+00
5.06E+00
5.06E+00
5.07E+00
5.08E+00
5.06E+00
5.06E+00
5.05E+00
5.06E+00
5.07E+00
5.09E+00
5.09E+00
5.07E+00
5.08E+00
5.09E+00
5.11E+00
5.12E+00
5.11E+00
5.10E+00
5.10E+00
5.11E+00
5.13E+00
5.14E+00
5.12E+00
5.11E+00
5.12E+00
5.12E+00
5.13E+00
5.16E+00
5.14E+00
5.13E+00
5.12E+00
5.15E+00
5.16E+00
5.14E+00
5.14E+00
5.14E+00
5.13E+00
5.12E+00
5.14E+00
5.15E+00
5.16E+00
5.14E+00
5.13E+00
5.12E+00
5.13E+00
5.14E+00
5.13E+00
5.12E+00
5.11E+00
5.09E+00
5.10E+00
5.10E+00
5.09E+00
5.07E+00
5.05E+00
5.06E+00
5.07E+00
5.08E+00
5.08E+00
5.05E+00
5.03E+00
5.03E+00
5.03E+00
5.04E+00
5.03E+00
5.03E+00
5.01E+00
5.01E+00
5.02E+00
5.04E+00
5.04E+00
5.03E+00
5.01E+00
5.00E+00
5.01E+00
5.01E+00
5.01E+00
5.00E+00
4.99E+00
5.00E+00
5.00E+00
5.00E+00
5.00E+00
5.00E+00
5.00E+00
5.00E+00
5.01E+00
5.01E+00
5.01E+00
5.00E+00
4.99E+00
4.98E+00
4.99E+00
5.01E+00
5.01E+00
4.98E+00
4.98E+00
4.98E+00
4.98E+00
4.99E+00
4.97E+00
4.98E+00
4.97E+00
4.98E+00
4.99E+00
4.97E+00
4.96E+00
4.95E+00
4.95E+00
4.94E+00
4.94E+00
4.95E+00
4.97E+00
4.96E+00
4.97E+00
4.96E+00
4.95E+00
4.94E+00
4.93E+00
4.92E+00
4.90E+00
4.89E+00
4.92E+00
4.94E+00
4.93E+00
4.89E+00
4.88E+00
4.88E+00
4.90E+00
4.93E+00
4.92E+00
4.93E+00
4.92E+00
4.92E+00
4.93E+00
4.93E+00
4.91E+00
4.90E+00
4.89E+00
4.88E+00
4.89E+00
4.90E+00
4.93E+00
4.95E+00
4.94E+00
4.93E+00
4.92E+00
4.93E+00
4.91E+00
4.91E+00
4.92E+00
4.92E+00
4.94E+00
4.94E+00
4.93E+00
4.91E+00
4.91E+00
4.93E+00
4.94E+00
4.95E+00
4.94E+00
4.92E+00
4.91E+00
4.92E+00
4.93E+00
4.95E+00
4.94E+00
4.93E+00
4.91E+00
4.90E+00
4.92E+00
4.93E+00
4.94E+00
4.97E+00
4.97E+00
4.96E+00
4.97E+00
4.95E+00
4.96E+00
4.96E+00
4.95E+00
4.95E+00
4.96E+00
4.99E+00
4.98E+00
4.96E+00
4.95E+00
4.93E+00
4.95E+00
4.96E+00
4.95E+00
4.94E+00
4.96E+00
4.96E+00
4.99E+00
5.00E+00
5.00E+00
5.01E+00
5.01E+00
5.00E+00
5.01E+00
5.04E+00
5.05E+00
5.08E+00
5.08E+00
5.10E+00
5.11E+00
5.13E+00
5.15E+00
5.16E+00
5.15E+00
5.13E+00
5.15E+00
5.19E+00
5.20E+00
5.20E+00
5.18E+00
5.15E+00
5.13E+00
5.10E+00
5.05E+00
5.01E+00
4.96E+00
4.92E+00
4.89E+00
4.89E+00
4.89E+00
4.90E+00
4.89E+00
4.89E+00
4.90E+00
4.91E+00
4.90E+00
4.89E+00
4.88E+00
4.88E+00
4.89E+00
4.89E+00
4.88E+00
4.86E+00
4.86E+00
4.87E+00
4.89E+00
4.90E+00
4.89E+00
4.87E+00
4.87E+00
4.89E+00
4.91E+00
4.91E+00
4.91E+00
4.90E+00
4.89E+00
4.89E+00
4.88E+00
4.90E+00
4.90E+00
4.90E+00
4.90E+00
4.87E+00
4.87E+00
4.84E+00
4.83E+00
4.83E+00
4.84E+00
4.87E+00
4.89E+00
4.91E+00
4.90E+00
4.87E+00
4.79E+00
4.69E+00
4.67E+00
4.66E+00
4.64E+00
4.64E+00
4.61E+00
4.56E+00
4.51E+00
4.49E+00
4.43E+00
4.41E+00
4.35E+00
4.31E+00
4.28E+00
4.27E+00
4.25E+00
4.23E+00
4.25E+00
4.31E+00
4.35E+00
4.37E+00
4.40E+00
4.47E+00
4.56E+00
4.63E+00
4.70E+00
4.73E+00
4.76E+00
4.79E+00
4.83E+00
4.86E+00
4.89E+00
4.90E+00
4.90E+00
4.90E+00
4.90E+00
4.91E+00
4.92E+00
4.96E+00
4.98E+00
4.98E+00
4.97E+00
4.93E+00
4.94E+00
4.95E+00
4.97E+00
4.96E+00
4.97E+00
4.97E+00
4.97E+00
4.96E+00
4.96E+00
4.96E+00
4.94E+00
4.96E+00
4.97E+00
4.99E+00
4.98E+00
4.97E+00
4.97E+00
4.97E+00
4.97E+00
4.97E+00
4.96E+00
4.96E+00
4.96E+00
4.93E+00
4.94E+00
4.99E+00
5.00E+00
5.01E+00
4.99E+00
4.98E+00
5.02E+00
5.05E+00
5.05E+00
5.02E+00
5.01E+00
5.01E+00
5.04E+00
5.04E+00
5.03E+00
5.03E+00
5.03E+00
5.05E+00
5.06E+00
5.07E+00
5.09E+00
5.08E+00
5.08E+00
5.06E+00
5.07E+00
5.09E+00
5.08E+00
5.09E+00
5.08E+00
5.08E+00
5.10E+00
5.10E+00
5.10E+00
5.07E+00
5.06E+00
5.06E+00
5.06E+00
5.08E+00
5.09E+00
5.10E+00
5.11E+00
5.09E+00
5.07E+00
5.07E+00
5.06E+00
5.05E+00
5.03E+00
5.01E+00
5.01E+00
5.02E+00
5.02E+00
5.00E+00
4.97E+00
4.94E+00
4.96E+00
4.97E+00
4.97E+00
4.96E+00
4.97E+00
4.96E+00
4.95E+00
4.95E+00
4.95E+00
4.95E+00
4.95E+00
4.93E+00
4.93E+00
4.95E+00
4.96E+00
4.95E+00
4.93E+00
4.92E+00
4.91E+00
4.94E+00
4.93E+00
4.92E+00
4.91E+00
4.93E+00
4.94E+00
4.96E+00
4.96E+00
4.94E+00
4.91E+00
4.91E+00
4.93E+00
4.93E+00
4.91E+00
4.89E+00
4.90E+00
4.92E+00
4.94E+00
4.94E+00
4.92E+00
4.89E+00
4.89E+00
4.90E+00
4.90E+00
4.91E+00
4.91E+00
4.90E+00
4.87E+00
4.86E+00
4.87E+00
4.89E+00
4.88E+00
4.84E+00
4.84E+00
4.86E+00
4.89E+00
4.91E+00
4.90E+00
4.87E+00
4.87E+00
4.86E+00
4.86E+00
4.85E+00
4.85E+00
4.84E+00
4.83E+00
4.83E+00
4.86E+00
4.87E+00
4.87E+00
4.85E+00
4.84E+00
4.83E+00
4.84E+00
4.85E+00
4.85E+00
4.83E+00
4.82E+00
4.80E+00
4.82E+00
4.86E+00
4.88E+00
4.87E+00
4.85E+00
4.84E+00
4.86E+00
4.86E+00
4.86E+00
4.84E+00
4.85E+00
4.86E+00
4.88E+00
4.87E+00
4.86E+00
4.85E+00
4.85E+00
4.85E+00
4.85E+00
4.87E+00
4.88E+00
4.88E+00
4.85E+00
4.86E+00
4.87E+00
4.88E+00
4.88E+00
4.89E+00
4.86E+00
4.83E+00
4.86E+00
4.87E+00
4.88E+00
4.87E+00
4.87E+00
4.87E+00
4.88E+00
4.89E+00
4.87E+00
4.87E+00
4.83E+00
4.84E+00
4.85E+00
4.87E+00
4.86E+00
4.85E+00
4.85E+00
4.85E+00
4.86E+00
4.87E+00
4.87E+00
4.86E+00
4.88E+00
4.89E+00
4.90E+00
4.91E+00
4.89E+00
4.88E+00
4.88E+00
4.87E+00
4.88E+00
4.88E+00
4.85E+00
4.87E+00
4.88E+00
4.90E+00
4.91E+00
4.91E+00
4.90E+00
4.92E+00
4.93E+00
4.94E+00
4.95E+00
4.96E+00
4.98E+00
4.99E+00
4.96E+00
4.97E+00
5.00E+00
5.04E+00
5.05E+00
5.05E+00
5.06E+00
5.07E+00
5.09E+00
5.10E+00
5.09E+00
5.12E+00
5.12E+00
5.13E+00
5.13E+00
5.13E+00
5.11E+00
5.08E+00
5.02E+00
4.96E+00
4.92E+00
4.90E+00
4.85E+00
4.84E+00
4.83E+00
4.83E+00
4.84E+00
4.84E+00
4.83E+00
4.81E+00
4.81E+00
4.83E+00
4.85E+00
4.87E+00
4.85E+00
4.84E+00
4.84E+00
4.85E+00
4.85E+00
4.87E+00
4.86E+00
4.85E+00
4.83E+00
4.83E+00
4.83E+00
4.85E+00
4.87E+00
4.85E+00
4.84E+00
4.83E+00
4.83E+00
4.84E+00
4.86E+00
4.85E+00
4.84E+00
4.83E+00
4.83E+00
4.85E+00
4.84E+00
4.85E+00
4.85E+00
4.85E+00
4.84E+00
4.83E+00
4.85E+00
4.87E+00
4.87E+00
4.87E+00
4.87E+00
4.87E+00
4.82E+00
4.73E+00
4.66E+00
4.64E+00
4.64E+00
4.64E+00
4.62E+00
4.58E+00
4.51E+00
4.46E+00
4.46E+00
4.43E+00
4.39E+00
4.33E+00
4.25E+00
4.22E+00
4.22E+00
4.21E+00
4.22E+00
4.25E+00
4.29E+00
4.32E+00
4.37E+00
4.44E+00
4.52E+00
4.59E+00
4.63E+00
4.67E+00
4.73E+00
4.79E+00
4.84E+00
4.87E+00
4.87E+00
4.87E+00
4.90E+00
4.90E+00
4.91E+00
4.92E+00
4.92E+00
4.92E+00
4.93E+00
4.94E+00
4.93E+00
4.93E+00
4.93E+00
4.94E+00
4.95E+00
4.96E+00
4.97E+00
4.97E+00
4.96E+00
4.96E+00
4.97E+00
4.97E+00
4.97E+00
4.96E+00
4.94E+00
4.93E+00
4.95E+00
4.96E+00
4.99E+00
4.99E+00
4.97E+00
4.96E+00
4.94E+00
4.95E+00
4.97E+00
5.00E+00
4.99E+00
4.99E+00
5.00E+00
5.00E+00
5.01E+00
4.99E+00
4.99E+00
5.01E+00
5.02E+00
5.03E+00
5.02E+00
5.01E+00
4.99E+00
5.01E+00
5.03E+00
5.06E+00
5.07E+00
5.05E+00
5.03E+00
5.04E+00
5.05E+00
5.05E+00
5.04E+00
5.02E+00
5.03E+00
5.03E+00
5.05E+00
5.06E+00
5.07E+00
5.06E+00
5.05E+00
5.04E+00
5.06E+00
5.06E+00
5.04E+00
5.03E+00
5.04E+00
5.04E+00
5.05E+00
5.07E+00
5.05E+00
5.02E+00
5.02E+00
5.01E+00
5.03E+00
5.04E+00
5.02E+00
5.01E+00
4.98E+00
4.97E+00
4.97E+00
4.97E+00
4.97E+00
4.97E+00
4.95E+00
4.95E+00
4.94E+00
4.93E+00
4.92E+00
4.91E+00
4.91E+00
4.90E+00
4.92E+00
4.93E+00
4.94E+00
4.91E+00
4.90E+00
4.90E+00
4.89E+00
4.91E+00
4.92E+00
4.92E+00
4.91E+00
4.89E+00
4.89E+00
4.88E+00
4.89E+00
4.88E+00
4.87E+00
4.88E+00
4.89E+00
4.90E+00
4.88E+00
4.88E+00
4.87E+00
4.87E+00
4.89E+00
4.90E+00
4.90E+00
4.89E+00
4.87E+00
4.88E+00
4.90E+00
4.91E+00
4.90E+00
4.87E+00
4.86E+00
4.87E+00
4.88E+00
4.86E+00
4.86E+00
4.85E+00
4.86E+00
4.87E+00
4.89E+00
4.89E+00
4.88E+00
4.87E+00
4.84E+00
4.84E+00
4.85E+00
4.86E+00
4.85E+00
4.83E+00
4.82E+00
4.83E+00
4.83E+00
4.84E+00
4.83E+00
4.83E+00
4.81E+00
4.81E+00
4.81E+00
4.81E+00
4.81E+00
4.79E+00
4.78E+00
4.78E+00
4.79E+00
4.79E+00
4.79E+00
4.77E+00
4.77E+00
4.78E+00
4.78E+00
4.79E+00
4.79E+00
4.77E+00
4.77E+00
4.77E+00
4.78E+00
4.78E+00
4.78E+00
4.78E+00
4.77E+00
4.77E+00
4.78E+00
4.80E+00
4.81E+00
4.80E+00
4.78E+00
4.78E+00
4.78E+00
4.80E+00
4.80E+00
4.79E+00
4.78E+00
4.76E+00
4.77E+00
4.78E+00
4.78E+00
4.77E+00
4.78E+00
4.78E+00
4.80E+00
4.81E+00
4.81E+00
4.82E+00
4.79E+00
4.79E+00
4.80E+00
4.81E+00
4.81E+00
4.81E+00
4.79E+00
4.77E+00
4.78E+00
4.80E+00
4.81E+00
4.79E+00
4.77E+00
4.78E+00
4.80E+00
4.81E+00
4.81E+00
4.79E+00
4.79E+00
4.79E+00
4.81E+00
4.82E+00
4.82E+00
4.82E+00
4.79E+00
4.80E+00
4.79E+00
4.79E+00
4.80E+00
4.80E+00
4.79E+00
4.80E+00
4.82E+00
4.82E+00
4.81E+00
4.80E+00
4.81E+00
4.82E+00
4.81E+00
4.82E+00
4.82E+00
4.82E+00
4.81E+00
4.81E+00
4.82E+00
4.83E+00
4.82E+00
4.81E+00
4.80E+00
4.81E+00
4.82E+00
4.81E+00
4.82E+00
4.81E+00
4.80E+00
4.80E+00
4.81E+00
4.84E+00
4.88E+00
4.89E+00
4.89E+00
4.89E+00
4.90E+00
4.92E+00
4.92E+00
4.93E+00
4.92E+00
4.95E+00
4.97E+00
4.98E+00
4.99E+00
4.99E+00
5.00E+00
5.01E+00
5.02E+00
5.03E+00
5.03E+00
5.03E+00
5.02E+00
5.04E+00
5.05E+00
5.07E+00
5.05E+00
5.02E+00
4.97E+00
4.94E+00
4.92E+00
4.90E+00
4.86E+00
4.83E+00
4.79E+00
4.77E+00
4.76E+00
4.76E+00
4.76E+00
4.75E+00
4.76E+00
4.79E+00
4.79E+00
4.81E+00
4.80E+00
4.80E+00
4.78E+00
4.78E+00
4.78E+00
4.78E+00
4.79E+00
4.79E+00
4.77E+00
4.77E+00
4.76E+00
4.76E+00
4.77E+00
4.76E+00
4.75E+00
4.76E+00
4.77E+00
4.79E+00
4.79E+00
4.77E+00
4.75E+00
4.76E+00
4.77E+00
4.78E+00
4.77E+00
4.79E+00
4.78E+00
4.77E+00
4.78E+00
4.77E+00
4.77E+00
4.77E+00
4.76E+00
4.73E+00
4.74E+00
4.74E+00
4.75E+00
4.77E+00
4.78E+00
4.77E+00
4.77E+00
4.78E+00
4.75E+00
4.68E+00
4.58E+00
4.54E+00
4.53E+00
4.52E+00
4.52E+00
4.50E+00
4.46E+00
4.41E+00
4.37E+00
4.33E+00
4.30E+00
4.27E+00
4.22E+00
4.20E+00
4.18E+00
4.17E+00
4.15E+00
4.13E+00
4.11E+00
4.15E+00
4.21E+00
4.27E+00
4.29E+00
4.33E+00
4.40E+00
4.49E+00
4.56E+00
4.61E+00
4.63E+00
4.66E+00
4.69E+00
4.73E+00
4.76E+00
4.81E+00
4.82E+00
4.83E+00
4.83E+00
4.83E+00
4.84E+00
4.86E+00
4.86E+00
4.85E+00
4.85E+00
4.85E+00
4.87E+00
4.89E+00
4.88E+00
4.87E+00
4.85E+00
4.85E+00
4.85E+00
4.87E+00
4.88E+00
4.87E+00
4.86E+00
4.86E+00
4.86E+00
4.87E+00
4.88E+00
4.88E+00
4.88E+00
4.89E+00
4.88E+00
4.88E+00
4.87E+00
4.87E+00
4.88E+00
4.89E+00
4.90E+00
4.90E+00
4.91E+00
4.89E+00
4.90E+00
4.88E+00
4.92E+00
4.94E+00
4.95E+00
4.93E+00
4.91E+00
4.93E+00
4.95E+00
4.95E+00
4.96E+00
4.94E+00
4.94E+00
4.95E+00
4.97E+00
4.98E+00
4.99E+00
4.97E+00
4.97E+00
4.97E+00
4.98E+00
4.97E+00
4.96E+00
4.96E+00
4.97E+00
4.98E+00
5.00E+00
5.01E+00
5.01E+00
4.98E+00
4.96E+00
4.97E+00
4.99E+00
5.01E+00
5.00E+00
4.99E+00
4.96E+00
4.96E+00
4.99E+00
5.00E+00
