2.2843481629633
2.2843481629633
2.2843481629633
2.2843481629633
2.2843481629633
2.2843481629633
2.2843481629633
2.2843481629633
2.2843481629633
2.2843481629633
2.2843481629633
2.2843481629633
2.2843481629633
2.2843481629633
2.2843481629633
2.2843481629633
2.2843481629633
2.2843481629633
2.2843481629633
2.2843481629633
2.2843481629633
2.2843481629633
2.2843481629633
2.2843481629633
2.2843481629633
2.2843481629633
2.2843481629633
2.2843481629633
2.2843481629633
2.2843481629633
2.2843481629633
2.2843481629633
2.2843481629633
2.2843481629633
2.2843481629633
2.2843481629633
2.2843481629633
2.2843481629633
2.2843481629633
2.2843481629633
2.2843481629633
2.2843481629633
2.2843481629633
2.2843481629633
2.2843481629633
2.2843481629633
2.2843481629633
2.2843481629633
2.2843481629633
2.2843481629633
2.2843481629633
2.2843481629633
2.2843481629633
2.2843481629633
2.2843481629633
2.2843481629633
2.2843481629633
2.2843481629633
2.2843481629633
2.2843481629633
2.2843481629633
2.2843481629633
2.2843481629633
2.2843481629633
2.2843481629633
2.2843481629633
2.2843481629633
2.2843481629633
2.2843481629633
2.2843481629633
2.2843481629633
2.2843481629633
2.2843481629633
2.2843481629633
2.2843481629633
2.2843481629633
2.2843481629633
2.2843481629633
2.2843481629633
2.2843481629633
2.2843481629633
2.2843481629633
2.2843481629633
2.2843481629633
2.2843481629633
2.2843481629633
2.2843481629633
2.2843481629633
2.2843481629633
2.2843481629633
2.2843481629633
2.2843481629633
2.2843481629633
2.2843481629633
2.2843481629633
2.2843481629633
2.2843481629633
2.2843481629633
2.2843481629633
2.2843481629633
2.2843481629633
2.2843481629633
2.2843481629633
2.2843481629633
2.2843481629633
2.2843481629633
2.2843481629633
2.2843481629633
2.2843481629633
2.2843481629633
2.2843481629633
2.2843481629633
2.2843481629633
2.2843481629633
2.2843481629633
2.2843481629633
2.2843481629633
2.2843481629633
2.2843481629633
2.2843481629633
2.2843481629633
2.2843481629633
2.2843481629633
2.2843481629633
2.2843481629633
2.2843481629633
2.2843481629633
2.2843481629633
2.2843481629633
2.2843481629633
2.26508687344427
2.26508687344427
2.26508687344427
2.26508687344427
2.26508687344427
2.26508687344427
2.26508687344427
2.26508687344427
2.26508687344427
2.26508687344427
2.26508687344427
2.26508687344427
2.26508687344427
2.26508687344427
2.26508687344427
2.26508687344427
2.26508687344427
2.26508687344427
2.26508687344427
2.26508687344427
2.26508687344427
2.26508687344427
2.26508687344427
2.26508687344427
2.26508687344427
2.26508687344427
2.26508687344427
2.26508687344427
2.26508687344427
2.26508687344427
2.26508687344427
2.26508687344427
2.26508687344427
2.26508687344427
2.26508687344427
2.26508687344427
2.26508687344427
2.26508687344427
2.26508687344427
2.26508687344427
2.26508687344427
2.26508687344427
2.26508687344427
2.26508687344427
2.26508687344427
2.26508687344427
2.26508687344427
2.26508687344427
2.26508687344427
2.26508687344427
2.26508687344427
2.26508687344427
2.26508687344427
2.26508687344427
2.26508687344427
2.26508687344427
2.26508687344427
2.26508687344427
2.26508687344427
2.26508687344427
2.26508687344427
2.26508687344427
2.26508687344427
2.26508687344427
2.26508687344427
2.26508687344427
2.26508687344427
2.26508687344427
2.26508687344427
2.26508687344427
2.26508687344427
2.26508687344427
2.26508687344427
2.26508687344427
2.26508687344427
2.26508687344427
2.26508687344427
2.26508687344427
2.26508687344427
2.26508687344427
2.26508687344427
2.26508687344427
2.27473790510944
2.33556033751461
2.36167763882147
2.36167763882147
2.36167763882147
2.36167763882147
2.36167763882147
2.36167763882147
2.36167763882147
2.36167763882147
2.36167763882147
2.36167763882147
2.36167763882147
2.36167763882147
2.36167763882147
2.36167763882147
2.36167763882147
2.36167763882147
2.36167763882147
2.36167763882147
2.36167763882147
2.36167763882147
2.36167763882147
2.36167763882147
2.36167763882147
2.36167763882147
2.36167763882147
2.36167763882147
2.36167763882147
2.36167763882147
2.36167763882147
2.36167763882147
2.36167763882147
2.36167763882147
2.36167763882147
2.36167763882147
2.36167763882147
2.36167763882147
2.36167763882147
2.36167763882147
2.36167763882147
2.36167763882147
2.36167763882147
2.36167763882147
2.36167763882147
2.36167763882147
2.36167763882147
2.36167763882147
2.36167763882147
2.36167763882147
2.36167763882147
2.36167763882147
2.36167763882147
2.36167763882147
2.36167763882147
2.36167763882147
2.36167763882147
2.36167763882147
2.36167763882147
2.36167763882147
2.36167763882147
2.36167763882147
2.36167763882147
2.36167763882147
2.36167763882147
2.36167763882147
2.36167763882147
2.36167763882147
2.36167763882147
2.36167763882147
2.36167763882147
2.36167763882147
2.36167763882147
2.36167763882147
2.36167763882147
2.36167763882147
2.36167763882147
2.36167763882147
2.36167763882147
2.36167763882147
2.36167763882147
2.36167763882147
2.36167763882147
2.36167763882147
2.36167763882147
2.36167763882147
2.36167763882147
2.36167763882147
2.36167763882147
2.36167763882147
2.36167763882147
2.36167763882147
2.36167763882147
2.36167763882147
2.36167763882147
2.36167763882147
2.36167763882147
2.36167763882147
2.36167763882147
2.36167763882147
2.36167763882147
2.36167763882147
2.36167763882147
2.36167763882147
2.36167763882147
2.36167763882147
2.36167763882147
2.36167763882147
2.36167763882147
2.36167763882147
2.36167763882147
2.36167763882147
2.36167763882147
2.36167763882147
2.36167763882147
2.36167763882147
2.36167763882147
2.36167763882147
2.38291700503842
2.38475496675019
2.46515735530204
2.5524773678372
2.68057732615772
2.74996275223197
2.78793871948175
2.82152484875851
2.83469332728222
2.89585880202669
2.97643903387094
3.06348775657032
3.06348775657032
3.1201713376341
3.15369249311274
3.18479815816172
3.19921063590439
3.25353048770423
3.29634194034093
3.32215965286889
3.32215965286889
3.34384971777052
3.39585672203218
3.45976629318983
3.45976629318983
3.49002721599915
3.50318417344397
3.50318417344397
3.50318417344397
3.50318417344397
3.50318417344397
3.50318417344397
3.50318417344397
3.50318417344397
3.50318417344397
3.50318417344397
3.50318417344397
3.50318417344397
3.50318417344397
3.50318417344397
3.50318417344397
3.50318417344397
3.50318417344397
3.50318417344397
3.50318417344397
3.50318417344397
3.50318417344397
3.50318417344397
3.50318417344397
3.50318417344397
3.50318417344397
3.50318417344397
3.50318417344397
3.50318417344397
3.50318417344397
3.50318417344397
3.50318417344397
3.50318417344397
3.50318417344397
3.50318417344397
3.50318417344397
3.50318417344397
3.50318417344397
3.50318417344397
3.50318417344397
3.50318417344397
3.50318417344397
3.50318417344397
3.50318417344397
3.50318417344397
3.50318417344397
3.50318417344397
3.50318417344397
3.50318417344397
3.50318417344397
3.50318417344397
3.50318417344397
3.50318417344397
3.50318417344397
3.50318417344397
3.50318417344397
3.50318417344397
3.50318417344397
3.50318417344397
3.50318417344397
3.50318417344397
3.50318417344397
3.50318417344397
3.50318417344397
3.50318417344397
3.50318417344397
3.50318417344397
3.50318417344397
3.50318417344397
3.50318417344397
3.50318417344397
3.50318417344397
3.50318417344397
3.50318417344397
3.50318417344397
3.50318417344397
3.50318417344397
3.50318417344397
3.50318417344397
3.50318417344397
3.50318417344397
3.50318417344397
3.50318417344397
3.50318417344397
3.50318417344397
3.50318417344397
3.50318417344397
3.50318417344397
3.50318417344397
3.50318417344397
3.50318417344397
3.50318417344397
3.50318417344397
3.50318417344397
3.50318417344397
3.50318417344397
3.50318417344397
3.50318417344397
3.50318417344397
3.50318417344397
3.50318417344397
3.50318417344397
3.50318417344397
3.50318417344397
3.50318417344397
3.50318417344397
3.50318417344397
3.50318417344397
3.50318417344397
3.50318417344397
3.50318417344397
3.50318417344397
3.50318417344397
3.50318417344397
3.50318417344397
3.50318417344397
3.50318417344397
3.50318417344397
3.50318417344397
3.50318417344397
3.50318417344397
3.50318417344397
3.50318417344397
3.50318417344397
3.50318417344397
3.50318417344397
3.50318417344397
3.50318417344397
3.50318417344397
3.50318417344397
3.50318417344397
3.50318417344397
3.50318417344397
3.50318417344397
3.50318417344397
3.50318417344397
3.50318417344397
3.50318417344397
3.50318417344397
3.50318417344397
3.50318417344397
3.50318417344397
3.50318417344397
3.50318417344397
3.50318417344397
3.50318417344397
3.50318417344397
3.50318417344397
3.50318417344397
3.50318417344397
3.50318417344397
3.50318417344397
3.50318417344397
3.50318417344397
3.50318417344397
3.50318417344397
3.50318417344397
3.50318417344397
3.50318417344397
3.50318417344397
3.50318417344397
3.50318417344397
3.50318417344397
3.50318417344397
3.50318417344397
3.50318417344397
3.50318417344397
3.50318417344397
3.50318417344397
3.50318417344397
3.50318417344397
3.50318417344397
3.50318417344397
3.50318417344397
3.50318417344397
3.50318417344397
3.50318417344397
3.50318417344397
3.50318417344397
3.50318417344397
3.50318417344397
3.50318417344397
3.50318417344397
3.50318417344397
3.50318417344397
3.50318417344397
3.50318417344397
3.50318417344397
3.50318417344397
3.50318417344397
3.50318417344397
3.50318417344397
3.50318417344397
3.50318417344397
3.50318417344397
3.50318417344397
3.50318417344397
3.50318417344397
3.50318417344397
3.50318417344397
3.50318417344397
3.50318417344397
3.50318417344397
3.50318417344397
3.50318417344397
3.50318417344397
3.50318417344397
3.50318417344397
3.50318417344397
3.50318417344397
3.50318417344397
3.50318417344397
3.50318417344397
3.50318417344397
3.50318417344397
3.50318417344397
3.50318417344397
3.50318417344397
3.50318417344397
3.50318417344397
3.50318417344397
3.50318417344397
3.50318417344397
3.50318417344397
3.50318417344397
3.50318417344397
3.50318417344397
3.50318417344397
3.50318417344397
3.50318417344397
3.50318417344397
3.50318417344397
3.50318417344397
3.50318417344397
3.50318417344397
3.50318417344397
3.50318417344397
3.50318417344397
3.50318417344397
3.50318417344397
3.50318417344397
3.50318417344397
3.50318417344397
3.50318417344397
3.50318417344397
3.50318417344397
3.50318417344397
3.50318417344397
3.50318417344397
3.50318417344397
3.50318417344397
3.50318417344397
3.50318417344397
3.50318417344397
3.50318417344397
3.50318417344397
3.50318417344397
3.50318417344397
3.50318417344397
3.50318417344397
3.50318417344397
3.50318417344397
3.50318417344397
3.50318417344397
3.50318417344397
3.50318417344397
3.50318417344397
3.50318417344397
3.50318417344397
3.50318417344397
3.50318417344397
3.50318417344397
3.50318417344397
3.50318417344397
3.50318417344397
3.50318417344397
3.50318417344397
3.50318417344397
3.50318417344397
3.50318417344397
3.50318417344397
3.50318417344397
3.50318417344397
3.50318417344397
3.50318417344397
3.50318417344397
3.50318417344397
3.50318417344397
3.50318417344397
3.50318417344397
3.50318417344397
3.50318417344397
3.50318417344397
3.50318417344397
3.50318417344397
3.50318417344397
3.50318417344397
3.50318417344397
3.50318417344397
3.50318417344397
3.50318417344397
3.50318417344397
3.50318417344397
3.50318417344397
3.50318417344397
3.50318417344397
3.50318417344397
3.50318417344397
3.50318417344397
3.50318417344397
3.50318417344397
3.50318417344397
3.50318417344397
3.50318417344397
3.50318417344397
3.50318417344397
3.50318417344397
3.50318417344397
3.50318417344397
3.50318417344397
3.50318417344397
3.50318417344397
3.50318417344397
3.50318417344397
3.50318417344397
3.50318417344397
3.50318417344397
3.50318417344397
3.50318417344397
3.50318417344397
3.50318417344397
3.50318417344397
3.50318417344397
3.50318417344397
3.50318417344397
3.50318417344397
3.50318417344397
3.50318417344397
3.50318417344397
3.50318417344397
3.50318417344397
3.50318417344397
3.50318417344397
3.50318417344397
3.50318417344397
3.50318417344397
3.50318417344397
3.50318417344397
3.50318417344397
3.50318417344397
3.50318417344397
3.50318417344397
3.50318417344397
3.50318417344397
3.50318417344397
3.50318417344397
3.50318417344397
3.50318417344397
3.50318417344397
3.50318417344397
3.50318417344397
3.50318417344397
3.50318417344397
3.50318417344397
3.50318417344397
3.50318417344397
3.50318417344397
3.50318417344397
3.50318417344397
3.50318417344397
3.50318417344397
3.50318417344397
3.50318417344397
3.50318417344397
3.50318417344397
3.50318417344397
3.50318417344397
3.50318417344397
3.50318417344397
3.50318417344397
3.50318417344397
3.50318417344397
3.50318417344397
3.50318417344397
3.50318417344397
3.50318417344397
3.50318417344397
3.50318417344397
3.50318417344397
3.50318417344397
3.50318417344397
3.50318417344397
3.50318417344397
3.50318417344397
3.50318417344397
3.50318417344397
3.50318417344397
3.50318417344397
3.50318417344397
3.50318417344397
3.50318417344397
3.50318417344397
3.50318417344397
3.50318417344397
3.50318417344397
3.50318417344397
3.17791210003331
2.64105805248363
2.20728701970675
2.04125223944089
2.04125223944089
2.04125223944089
2.04125223944089
2.04125223944089
2.04125223944089
2.04125223944089
2.04125223944089
2.04125223944089
2.04125223944089
2.04125223944089
2.04125223944089
2.04125223944089
2.04125223944089
2.04125223944089
2.04125223944089
2.04125223944089
2.04125223944089
2.04125223944089
2.04125223944089
2.04125223944089
2.04125223944089
2.04125223944089
2.04125223944089
2.04125223944089
2.04125223944089
2.04125223944089
2.04125223944089
2.04125223944089
2.04125223944089
2.04125223944089
2.04125223944089
2.04125223944089
2.04125223944089
2.04125223944089
2.04125223944089
2.04125223944089
2.04125223944089
2.04125223944089
2.04125223944089
2.04125223944089
2.04125223944089
2.04125223944089
2.04125223944089
2.04125223944089
2.04125223944089
2.04125223944089
2.04125223944089
2.04125223944089
2.04125223944089
2.04125223944089
2.04125223944089
2.04125223944089
2.04125223944089
2.04125223944089
2.04125223944089
2.04125223944089
2.04125223944089
2.04125223944089
2.04125223944089
2.04125223944089
2.04125223944089
2.04125223944089
2.04125223944089
2.04125223944089
2.04125223944089
2.04125223944089
2.04125223944089
2.04125223944089
2.04125223944089
2.04125223944089
2.04125223944089
2.04125223944089
2.04125223944089
2.04125223944089
2.04125223944089
2.04125223944089
2.04125223944089
2.04125223944089
2.04125223944089
2.04125223944089
2.04125223944089
2.04125223944089
2.04125223944089
2.04125223944089
2.04125223944089
2.04125223944089
2.04125223944089
2.04125223944089
2.04125223944089
2.04125223944089
2.04125223944089
2.04125223944089
2.04125223944089
2.04125223944089
2.04125223944089
2.04125223944089
2.04125223944089
2.04125223944089
2.04125223944089
2.04125223944089
2.04125223944089
2.04125223944089
2.04125223944089
2.04125223944089
2.04125223944089
2.04125223944089
2.04125223944089
2.04125223944089
2.04125223944089
2.04125223944089
2.04125223944089
2.04125223944089
2.04125223944089
2.04125223944089
2.04125223944089
2.04125223944089
2.04125223944089
2.04125223944089
2.04125223944089
2.04125223944089
2.04125223944089
2.04125223944089
2.04125223944089
2.04125223944089
2.04125223944089
2.04125223944089
2.04125223944089
2.04125223944089
2.04125223944089
2.04125223944089
2.04125223944089
2.04125223944089
2.04125223944089
2.04125223944089
2.04125223944089
2.04125223944089
2.04125223944089
2.04125223944089
2.04125223944089
2.04125223944089
2.04125223944089
2.04125223944089
2.04125223944089
2.04125223944089
2.04125223944089
2.04125223944089
2.04125223944089
2.04125223944089
2.04125223944089
2.04125223944089
2.04125223944089
2.04125223944089
2.04125223944089
2.04125223944089
2.04125223944089
2.04125223944089
2.04125223944089
2.04125223944089
2.04125223944089
2.04125223944089
2.04125223944089
2.04125223944089
2.04125223944089
2.04125223944089
2.04125223944089
2.04125223944089
2.04125223944089
2.04125223944089
2.04125223944089
2.04125223944089
2.04125223944089
2.04125223944089
2.04125223944089
2.04125223944089
2.04125223944089
2.04125223944089
2.04125223944089
2.04125223944089
2.04125223944089
2.04125223944089
2.04125223944089
2.04125223944089
2.04125223944089
2.04125223944089
2.04125223944089
2.04125223944089
2.04125223944089
2.04125223944089
2.04125223944089
2.04125223944089
2.04125223944089
2.04125223944089
2.04125223944089
2.04125223944089
2.04125223944089
2.04125223944089
2.04125223944089
2.04125223944089
2.04125223944089
2.04125223944089
2.04125223944089
2.04125223944089
2.04125223944089
2.04125223944089
2.04125223944089
2.04125223944089
2.04125223944089
2.04125223944089
2.04125223944089
2.04125223944089
2.04125223944089
2.04125223944089
2.04125223944089
2.04125223944089
2.04125223944089
2.04125223944089
2.04125223944089
2.04125223944089
2.04125223944089
2.04125223944089
2.04125223944089
2.04125223944089
2.04125223944089
2.04125223944089
2.04125223944089
2.04125223944089
2.04125223944089
2.04125223944089
2.04125223944089
2.04125223944089
2.04125223944089
2.04125223944089
2.04125223944089
2.04125223944089
2.04125223944089
2.04125223944089
2.04125223944089
2.04125223944089
2.04125223944089
2.04125223944089
2.04125223944089
2.04125223944089
2.04125223944089
2.04125223944089
2.04125223944089
2.04125223944089
2.04125223944089
2.04125223944089
2.04125223944089
2.04125223944089
2.04125223944089
2.04125223944089
2.04125223944089
2.04125223944089
2.04125223944089
2.04125223944089
2.04125223944089
2.04125223944089
2.04125223944089
2.04125223944089
2.04125223944089
2.04125223944089
2.04125223944089
2.04125223944089
2.04125223944089
2.04125223944089
2.04125223944089
2.04125223944089
2.04125223944089
2.04125223944089
2.04125223944089
2.04125223944089
2.04125223944089
2.04125223944089
2.04125223944089
2.04125223944089
2.04125223944089
2.04125223944089
2.04125223944089
2.04125223944089
2.04125223944089
2.04125223944089
2.04125223944089
2.04125223944089
2.04125223944089
2.04125223944089
2.04125223944089
2.04125223944089
2.04125223944089
2.04125223944089
2.04125223944089
2.04125223944089
2.04125223944089
2.04125223944089
2.04125223944089
2.04125223944089
2.04125223944089
2.04125223944089
2.04125223944089
2.04125223944089
2.04125223944089
2.04125223944089
2.04125223944089
2.04125223944089
2.04125223944089
2.04125223944089
2.04125223944089
2.04125223944089
2.04125223944089
2.04125223944089
2.04125223944089
2.04125223944089
2.04125223944089
2.04125223944089
2.04125223944089
2.04125223944089
2.04125223944089
2.04125223944089
2.04125223944089
2.04125223944089
2.04125223944089
2.04125223944089
2.01533052439577
2.00333764767699
2.00333764767699
2.00333764767699
2.00333764767699
2.00333764767699
2.00333764767699
2.00333764767699
2.00333764767699
2.00333764767699
2.00333764767699
2.00333764767699
2.00333764767699
2.00333764767699
2.00333764767699
2.00333764767699
2.00333764767699
2.00333764767699
2.00333764767699
2.00333764767699
2.00333764767699
2.00333764767699
2.00333764767699
2.00333764767699
2.00333764767699
2.00333764767699
2.00333764767699
2.00333764767699
2.00333764767699
2.00333764767699
2.00333764767699
2.00333764767699
2.00333764767699
2.00333764767699
2.00333764767699
2.00333764767699
2.00333764767699
2.00333764767699
2.00333764767699
2.00333764767699
2.00333764767699
2.00333764767699
2.00333764767699
2.00333764767699
2.00333764767699
2.00333764767699
2.00333764767699
2.00333764767699
2.00333764767699
2.00333764767699
2.00333764767699
2.00333764767699
2.00333764767699
2.00333764767699
2.00333764767699
2.00333764767699
2.00333764767699
2.00333764767699
2.00333764767699
2.00333764767699
2.00333764767699
2.00333764767699
2.00333764767699
2.00333764767699
2.00333764767699
2.00333764767699
2.00333764767699
2.00333764767699
2.00333764767699
2.00333764767699
2.00333764767699
1.99457026360223
1.98134644754916
1.95126522157981
1.88269806628521
1.84152193426296
1.83794962840769
1.83794962840769
1.83794962840769
1.80548083797507
1.76250165443119
1.76250165443119
1.76250165443119
1.76250165443119
1.76250165443119
1.76250165443119
1.76250165443119
1.76250165443119
1.76250165443119
1.76250165443119
1.76250165443119
1.76250165443119
1.76250165443119
1.76250165443119
1.76250165443119
1.76250165443119
1.76250165443119
1.76250165443119
1.76250165443119
1.76250165443119
1.76250165443119
1.76250165443119
1.76250165443119
1.76250165443119
1.76250165443119
1.76250165443119
1.76250165443119
1.76250165443119
1.76250165443119
1.76250165443119
1.76250165443119
1.76250165443119
1.76250165443119
1.76250165443119
1.76250165443119
1.76250165443119
1.76250165443119
1.76250165443119
1.76250165443119
1.76250165443119
1.76250165443119
1.76250165443119
1.76250165443119
1.76250165443119
1.76250165443119
1.76250165443119
1.76250165443119
1.76250165443119
1.76250165443119
1.76250165443119
1.76250165443119
1.76250165443119
1.76250165443119
1.76250165443119
1.76250165443119
1.76250165443119
1.76250165443119
1.76250165443119
1.76250165443119
1.76250165443119
1.76250165443119
1.76250165443119
1.76250165443119
1.76250165443119
1.76250165443119
1.76250165443119
1.76250165443119
1.76250165443119
1.76250165443119
1.76250165443119
1.76250165443119
1.76250165443119
1.76250165443119
1.76250165443119
1.76250165443119
1.76250165443119
1.76250165443119
1.76250165443119
1.76250165443119
1.76250165443119
1.76250165443119
1.76250165443119
1.76250165443119
1.76250165443119
1.76250165443119
1.76250165443119
1.76250165443119
1.76250165443119
1.76250165443119
1.76250165443119
1.76250165443119
1.76250165443119
1.76250165443119
1.76250165443119
1.76250165443119
1.76250165443119
1.76250165443119
1.76250165443119
1.76250165443119
1.76250165443119
1.76250165443119
1.76250165443119
1.76250165443119
1.76250165443119
1.76250165443119
1.76250165443119
1.76250165443119
1.76250165443119
1.76250165443119
1.76250165443119
1.76250165443119
1.76250165443119
1.76250165443119
1.76250165443119
1.76250165443119
1.76250165443119
1.76250165443119
1.76250165443119
1.76250165443119
1.76250165443119
1.76250165443119
1.76250165443119
1.76250165443119
1.76250165443119
1.76250165443119
1.76250165443119
1.76250165443119
1.76250165443119
1.76250165443119
1.76250165443119
1.76250165443119
1.76250165443119
1.76250165443119
1.76250165443119
1.76250165443119
1.76250165443119
1.76250165443119
1.76250165443119
1.76250165443119
1.76250165443119
1.76250165443119
1.76250165443119
1.76250165443119
1.76250165443119
1.76250165443119
1.76250165443119
1.76250165443119
1.76250165443119
1.76250165443119
1.76250165443119
1.76250165443119
1.76250165443119
1.76250165443119
1.76250165443119
1.76250165443119
1.76250165443119
1.76250165443119
1.76250165443119
1.76250165443119
1.76250165443119
1.76250165443119
1.76250165443119
1.76250165443119
1.76250165443119
1.76250165443119
1.76250165443119
1.76250165443119
1.76250165443119
1.76250165443119
1.76250165443119
1.76250165443119
1.76250165443119
1.81877883434367
1.8885070836881
1.91614524178134
1.91614524178134
1.91614524178134
1.91614524178134
1.91614524178134
1.91614524178134
1.91614524178134
1.91614524178134
1.91614524178134
1.91614524178134
1.91614524178134
1.91614524178134
1.91614524178134
1.91614524178134
1.91614524178134
1.91614524178134
1.91614524178134
1.91614524178134
1.91614524178134
1.91614524178134
1.91614524178134
1.91614524178134
1.91614524178134
1.91614524178134
1.91614524178134
1.91614524178134
1.91614524178134
1.91614524178134
1.91614524178134
1.91614524178134
1.91614524178134
1.91614524178134
1.91614524178134
1.91614524178134
1.91614524178134
1.95126522157981
1.95126522157981
1.95126522157981
1.95126522157981
1.95126522157981
1.95126522157981
1.95126522157981
1.95126522157981
1.95126522157981
1.95126522157981
1.95126522157981
1.95126522157981
1.95126522157981
1.95126522157981
1.95126522157981
1.95126522157981
1.95126522157981
1.95126522157981
1.95126522157981
1.95126522157981
1.95126522157981
1.95126522157981
1.95126522157981
1.95126522157981
1.95126522157981
1.95126522157981
1.95126522157981
1.95126522157981
1.95126522157981
1.95126522157981
1.95126522157981
1.95126522157981
1.95126522157981
1.95126522157981
1.95126522157981
1.95126522157981
1.95126522157981
1.95126522157981
1.95126522157981
1.95126522157981
1.95126522157981
1.95126522157981
1.95126522157981
1.95126522157981
1.95126522157981
1.95126522157981
1.95126522157981
1.95126522157981
1.95126522157981
1.95126522157981
1.95126522157981
1.95126522157981
1.95126522157981
1.95126522157981
1.95126522157981
1.89247367317029
1.89247367317029
1.89247367317029
1.89247367317029
1.89247367317029
1.89247367317029
1.89247367317029
1.89247367317029
1.89247367317029
1.89247367317029
1.89247367317029
1.89247367317029
1.89247367317029
1.89247367317029
1.89247367317029
1.89247367317029
1.89247367317029
1.89247367317029
1.89247367317029
1.89247367317029
1.89247367317029
1.89247367317029
1.89247367317029
1.89247367317029
1.89247367317029
1.89247367317029
1.89247367317029
1.89247367317029
1.89247367317029
1.89247367317029
1.89247367317029
1.89247367317029
1.89247367317029
1.89247367317029
1.89247367317029
1.89247367317029
1.89247367317029
1.89247367317029
1.89247367317029
1.89247367317029
1.89247367317029
1.89247367317029
1.89247367317029
1.89247367317029
1.89247367317029
1.89247367317029
1.89247367317029
1.89247367317029
1.89247367317029
1.89247367317029
1.89247367317029
1.89247367317029
1.89247367317029
1.89247367317029
1.89247367317029
1.89247367317029
1.89247367317029
1.89247367317029
1.89247367317029
1.89247367317029
1.89247367317029
1.89247367317029
1.89247367317029
1.89247367317029
1.89247367317029
1.89247367317029
1.89247367317029
1.89247367317029
1.89247367317029
1.89247367317029
1.89247367317029
1.89247367317029
1.89247367317029
1.89247367317029
1.89247367317029
1.89247367317029
1.89247367317029
1.89247367317029
1.89247367317029
1.89247367317029
1.89247367317029
1.89247367317029
1.89247367317029
1.89247367317029
1.89247367317029
1.89247367317029
1.89247367317029
1.89247367317029
1.89247367317029
1.89247367317029
1.89247367317029
1.89247367317029
1.89247367317029
1.89247367317029
1.89247367317029
1.89247367317029
1.89247367317029
1.89247367317029
1.89247367317029
1.89247367317029
1.89247367317029
1.89247367317029
1.89247367317029
1.89247367317029
1.89247367317029
1.89247367317029
1.89247367317029
1.89247367317029
1.89247367317029
1.89247367317029
1.89247367317029
1.89247367317029
1.89247367317029
1.89247367317029
1.89247367317029
1.89247367317029
1.89247367317029
1.89247367317029
1.89247367317029
1.89247367317029
1.89247367317029
1.89247367317029
1.89247367317029
1.89247367317029
1.89247367317029
1.89247367317029
1.89247367317029
1.89247367317029
1.89247367317029
1.89247367317029
1.89247367317029
1.89247367317029
1.89247367317029
1.89247367317029
1.89247367317029
1.89247367317029
1.89247367317029
1.89247367317029
1.89247367317029
1.89247367317029
1.89247367317029
1.89247367317029
1.89247367317029
1.89247367317029
1.89247367317029
1.89247367317029
1.89247367317029
1.89247367317029
1.89247367317029
1.9807899897534
1.99323486604026
1.99323486604026
1.99323486604026
1.99323486604026
1.99323486604026
1.99323486604026
1.99323486604026
1.99323486604026
1.99323486604026
1.99323486604026
1.99323486604026
1.99323486604026
1.99323486604026
1.99323486604026
1.99323486604026
1.99323486604026
1.99323486604026
1.99323486604026
1.99323486604026
1.99323486604026
1.99323486604026
1.99323486604026
1.99323486604026
1.99323486604026
1.99323486604026
1.99323486604026
1.99323486604026
1.99323486604026
1.99323486604026
1.99323486604026
1.99323486604026
1.99323486604026
1.99323486604026
1.99323486604026
1.99323486604026
1.99323486604026
1.99323486604026
1.99323486604026
1.99323486604026
1.99323486604026
1.99323486604026
1.99323486604026
1.99323486604026
1.99323486604026
1.99323486604026
1.99323486604026
1.99323486604026
1.99323486604026
1.99323486604026
1.99323486604026
1.99323486604026
1.99323486604026
1.99323486604026
1.99323486604026
1.99323486604026
1.99323486604026
1.99323486604026
1.99323486604026
1.99323486604026
1.99323486604026
1.99323486604026
1.99323486604026
1.99323486604026
1.99323486604026
1.99323486604026
1.99323486604026
1.99323486604026
1.99323486604026
1.99323486604026
1.99323486604026
1.99323486604026
1.99323486604026
1.99323486604026
1.99323486604026
1.99323486604026
1.99323486604026
1.99323486604026
1.99323486604026
1.99323486604026
1.99323486604026
1.99323486604026
1.99323486604026
1.99323486604026
1.99323486604026
1.99323486604026
1.99323486604026
1.99323486604026
1.99323486604026
1.99323486604026
1.99323486604026
1.99323486604026
1.99323486604026
1.99323486604026
1.99323486604026
1.99323486604026
1.99323486604026
1.99323486604026
1.99323486604026
1.99323486604026
1.99323486604026
1.99323486604026
1.99323486604026
1.99323486604026
1.99323486604026
1.99323486604026
1.99323486604026
1.99323486604026
1.99323486604026
1.99323486604026
1.99323486604026
1.99323486604026
1.99323486604026
1.99323486604026
1.99323486604026
1.99323486604026
1.99323486604026
1.99323486604026
1.99323486604026
1.99323486604026
1.99323486604026
1.99323486604026
1.99323486604026
1.99323486604026
1.99323486604026
1.99323486604026
1.99323486604026
1.99323486604026
1.99323486604026
1.99323486604026
1.99323486604026
1.99323486604026
1.99323486604026
1.99323486604026
1.99323486604026
1.99323486604026
1.99323486604026
1.99323486604026
1.99323486604026
1.99323486604026
1.99887133378306
2.0640676548519
2.0640676548519
2.12025949150799
2.35839748758745
2.4504053521664
2.51515151735039
2.54253809261744
2.54824084802332
2.54824084802332
2.58157864829588
2.68209456428163
2.70660113596023
2.70660113596023
2.72964605350296
2.8426380716706
2.94267767204315
2.99935493740615
3.02688726654285
3.06991698010435
3.13549557008436
3.15298244215514
3.15298244215514
3.15298244215514
3.15298244215514
3.15298244215514
3.15298244215514
3.15298244215514
3.15298244215514
3.15298244215514
3.15298244215514
3.15298244215514
3.15298244215514
3.15298244215514
3.15298244215514
3.15298244215514
3.15298244215514
3.15298244215514
3.15298244215514
3.15298244215514
3.15298244215514
3.15298244215514
3.15298244215514
3.15298244215514
3.15298244215514
3.15298244215514
3.15298244215514
3.15298244215514
3.15298244215514
3.15298244215514
3.15298244215514
3.15298244215514
3.15298244215514
3.15298244215514
3.15298244215514
3.15298244215514
3.15298244215514
3.15298244215514
3.15298244215514
3.15298244215514
3.15298244215514
3.15298244215514
3.15298244215514
3.15298244215514
3.15298244215514
3.15298244215514
3.15298244215514
3.15298244215514
3.15298244215514
3.15298244215514
3.15298244215514
3.15298244215514
3.15298244215514
3.15298244215514
3.15298244215514
3.15298244215514
3.15298244215514
3.15298244215514
3.15298244215514
3.15298244215514
3.15298244215514
3.15298244215514
3.15298244215514
3.15298244215514
3.15298244215514
3.15298244215514
3.15298244215514
3.15298244215514
3.15298244215514
3.15298244215514
3.15298244215514
3.15298244215514
3.15298244215514
3.15298244215514
3.15298244215514
3.15298244215514
3.15298244215514
3.15298244215514
3.15298244215514
3.15298244215514
3.15298244215514
3.15298244215514
3.15298244215514
3.15298244215514
3.15298244215514
3.15298244215514
3.15298244215514
3.15298244215514
3.15298244215514
3.15298244215514
3.15298244215514
3.15298244215514
3.15298244215514
3.15298244215514
3.15298244215514
3.15298244215514
3.15298244215514
3.15298244215514
3.15298244215514
3.15298244215514
3.15298244215514
3.15298244215514
3.15298244215514
3.15298244215514
3.15298244215514
3.15298244215514
3.15298244215514
3.15298244215514
3.15298244215514
3.15298244215514
3.15298244215514
3.15298244215514
3.15298244215514
3.15298244215514
3.15298244215514
3.15298244215514
3.15298244215514
3.15298244215514
3.15298244215514
3.15298244215514
3.15298244215514
3.15298244215514
3.15298244215514
3.15298244215514
3.15298244215514
3.15298244215514
3.15298244215514
3.15298244215514
3.15298244215514
3.15298244215514
3.15298244215514
3.15298244215514
3.15298244215514
3.15298244215514
3.15298244215514
3.15298244215514
3.15298244215514
3.15298244215514
3.15298244215514
3.15298244215514
3.15298244215514
3.15298244215514
3.15298244215514
3.15298244215514
3.15298244215514
3.15298244215514
3.15298244215514
3.15298244215514
3.15298244215514
3.15298244215514
3.15298244215514
3.15298244215514
3.15298244215514
3.15298244215514
3.15298244215514
3.15298244215514
3.15298244215514
3.15298244215514
3.15298244215514
3.15298244215514
3.15298244215514
3.15298244215514
3.15298244215514
3.15298244215514
3.15298244215514
3.15298244215514
3.15298244215514
3.15298244215514
3.15298244215514
3.15298244215514
3.15298244215514
3.15298244215514
3.15298244215514
3.15298244215514
3.15298244215514
3.15298244215514
3.15298244215514
3.15298244215514
3.15298244215514
3.15298244215514
3.15298244215514
3.15298244215514
3.15298244215514
3.15298244215514
3.15298244215514
3.15298244215514
3.15298244215514
3.15298244215514
3.15298244215514
3.15298244215514
3.15298244215514
3.15298244215514
3.15298244215514
3.15298244215514
3.15298244215514
3.15298244215514
3.15298244215514
3.15298244215514
3.15298244215514
3.15298244215514
3.15298244215514
3.15298244215514
3.15298244215514
3.15298244215514
3.15298244215514
3.15298244215514
3.15298244215514
3.15298244215514
3.15298244215514
3.15298244215514
3.15298244215514
3.15298244215514
3.15298244215514
3.15298244215514
3.15298244215514
3.15298244215514
3.15298244215514
3.15298244215514
3.15298244215514
3.15298244215514
3.15298244215514
3.15298244215514
3.15298244215514
3.15298244215514
3.15298244215514
3.15298244215514
3.15298244215514
3.15298244215514
3.15298244215514
3.15298244215514
3.15298244215514
3.15298244215514
3.15298244215514
3.15298244215514
3.15298244215514
3.15298244215514
3.15298244215514
3.15298244215514
3.15298244215514
3.15298244215514
3.15298244215514
3.15298244215514
3.15298244215514
3.15298244215514
3.15298244215514
3.15298244215514
3.15298244215514
3.15298244215514
3.15298244215514
3.15298244215514
3.15298244215514
3.15298244215514
3.15298244215514
3.15298244215514
3.15298244215514
3.15298244215514
3.15298244215514
3.15298244215514
3.15298244215514
3.15298244215514
3.15298244215514
3.15298244215514
3.15298244215514
3.15298244215514
3.15298244215514
3.15298244215514
3.15298244215514
3.15298244215514
3.15298244215514
3.15298244215514
3.15298244215514
3.15298244215514
3.15298244215514
3.15298244215514
3.15298244215514
3.15298244215514
3.15298244215514
3.15298244215514
3.15298244215514
3.15298244215514
3.15298244215514
3.15298244215514
3.15298244215514
3.15298244215514
3.15298244215514
3.15298244215514
3.15298244215514
3.15298244215514
3.15298244215514
3.15298244215514
3.15298244215514
3.15298244215514
3.15298244215514
3.15298244215514
3.15298244215514
3.15298244215514
3.15298244215514
3.15298244215514
3.15298244215514
3.15298244215514
3.15298244215514
3.15298244215514
3.15298244215514
3.15298244215514
3.15298244215514
3.15298244215514
3.15298244215514
3.15298244215514
3.15298244215514
3.15298244215514
3.15298244215514
3.15298244215514
3.15298244215514
3.15298244215514
3.15298244215514
3.15298244215514
3.15298244215514
3.15298244215514
3.15298244215514
3.15298244215514
3.15298244215514
3.15298244215514
3.15298244215514
3.15298244215514
3.15298244215514
3.15298244215514
3.15298244215514
3.15298244215514
3.15298244215514
3.15298244215514
3.15298244215514
3.15298244215514
3.15298244215514
3.15298244215514
3.15298244215514
3.15298244215514
3.15298244215514
3.15298244215514
3.15298244215514
3.15298244215514
3.15298244215514
3.15298244215514
3.15298244215514
3.34881096015184
3.98014044686617
4.67345522388319
5.2897625761583
5.82560473933652
6.34399730510447
6.69099488642221
6.86449397494481
6.92313788958714
6.92313788958714
6.92313788958714
6.92313788958714
6.92313788958714
6.92313788958714
6.92313788958714
6.92313788958714
6.92313788958714
6.92313788958714
6.92313788958714
6.92313788958714
6.92313788958714
6.92313788958714
6.92313788958714
6.92313788958714
6.92313788958714
6.92313788958714
6.92313788958714
6.92313788958714
6.92313788958714
6.92313788958714
6.92313788958714
6.92313788958714
6.92313788958714
6.92313788958714
6.92313788958714
6.92313788958714
6.92313788958714
6.92313788958714
6.92313788958714
6.92313788958714
6.92313788958714
6.92313788958714
6.92313788958714
6.92313788958714
6.92313788958714
6.92313788958714
6.92313788958714
6.92313788958714
6.92313788958714
6.92313788958714
6.92313788958714
6.92313788958714
6.92313788958714
6.92313788958714
6.92313788958714
6.92313788958714
6.92313788958714
6.92313788958714
6.92313788958714
6.92313788958714
6.92313788958714
6.92313788958714
6.92313788958714
6.92313788958714
6.92313788958714
6.92313788958714
6.92313788958714
6.92313788958714
6.92313788958714
6.92313788958714
6.92313788958714
6.92313788958714
6.92313788958714
6.92313788958714
6.92313788958714
6.92313788958714
6.92313788958714
6.92313788958714
6.92313788958714
6.92313788958714
6.92313788958714
6.92313788958714
6.92313788958714
6.92313788958714
6.92313788958714
6.92313788958714
6.92313788958714
6.92313788958714
6.92313788958714
6.92313788958714
6.92313788958714
6.92313788958714
6.92313788958714
6.92313788958714
6.92313788958714
6.92313788958714
6.92313788958714
6.92313788958714
6.92313788958714
6.92313788958714
6.92313788958714
6.92313788958714
6.92313788958714
6.92313788958714
6.92313788958714
6.92313788958714
6.92313788958714
6.92313788958714
6.92313788958714
6.92313788958714
6.92313788958714
6.92313788958714
6.92313788958714
6.92313788958714
6.92313788958714
6.92313788958714
6.92313788958714
6.92313788958714
6.92313788958714
6.92313788958714
6.92313788958714
6.92313788958714
6.92313788958714
6.92313788958714
6.92313788958714
6.92313788958714
6.92313788958714
6.92313788958714
6.92313788958714
6.92313788958714
6.92313788958714
6.92313788958714
6.92313788958714
6.92313788958714
6.92313788958714
6.92313788958714
6.92313788958714
6.92313788958714
6.92313788958714
6.92313788958714
6.92313788958714
6.92313788958714
6.92313788958714
6.92313788958714
6.92313788958714
6.92313788958714
6.92313788958714
6.92313788958714
6.92313788958714
6.92313788958714
6.92313788958714
6.92313788958714
6.92313788958714
6.92313788958714
6.92313788958714
6.92313788958714
6.92313788958714
6.92313788958714
6.92313788958714
6.92313788958714
6.92313788958714
6.92313788958714
6.92313788958714
6.92313788958714
6.92313788958714
6.92313788958714
6.92313788958714
6.92313788958714
6.92313788958714
6.92313788958714
6.92313788958714
6.92313788958714
6.92313788958714
6.92313788958714
6.92313788958714
6.92313788958714
6.92313788958714
6.92313788958714
6.92313788958714
6.92313788958714
6.92313788958714
6.92313788958714
6.92313788958714
6.92313788958714
6.92313788958714
6.92313788958714
6.92313788958714
6.92313788958714
6.92313788958714
6.92313788958714
6.92313788958714
6.92313788958714
6.92313788958714
6.92313788958714
6.92313788958714
6.92313788958714
6.92313788958714
6.92313788958714
6.92313788958714
6.92313788958714
6.92313788958714
6.92313788958714
6.92313788958714
6.92313788958714
6.92313788958714
6.92313788958714
6.92313788958714
6.92313788958714
6.92313788958714
6.92313788958714
6.92313788958714
6.92313788958714
6.92313788958714
6.92313788958714
6.92313788958714
6.92313788958714
6.92313788958714
6.92313788958714
6.92313788958714
6.92313788958714
6.92313788958714
6.92313788958714
6.92313788958714
6.92313788958714
6.92313788958714
6.92313788958714
6.92313788958714
6.92313788958714
6.92313788958714
6.92313788958714
6.92313788958714
6.92313788958714
6.92313788958714
6.92313788958714
6.92313788958714
6.92313788958714
6.92313788958714
6.92313788958714
6.92313788958714
6.92313788958714
6.92313788958714
6.92313788958714
6.92313788958714
6.92313788958714
6.92313788958714
6.92313788958714
6.92313788958714
6.92313788958714
6.92313788958714
6.92313788958714
6.92313788958714
6.92313788958714
6.92313788958714
6.92313788958714
6.92313788958714
6.92313788958714
6.92313788958714
6.92313788958714
6.92313788958714
6.92313788958714
6.92313788958714
6.92313788958714
6.92313788958714
6.92313788958714
6.92313788958714
6.92313788958714
6.92313788958714
6.92313788958714
6.92313788958714
6.92313788958714
6.92313788958714
6.92313788958714
6.92313788958714
6.92313788958714
6.92313788958714
6.92313788958714
6.92313788958714
6.92313788958714
6.92313788958714
6.92313788958714
6.92313788958714
6.92313788958714
6.92313788958714
6.92313788958714
6.92313788958714
6.92313788958714
6.92313788958714
6.92313788958714
6.92313788958714
6.92313788958714
6.92313788958714
6.92313788958714
6.92313788958714
6.92313788958714
6.92313788958714
6.92313788958714
6.92313788958714
6.92313788958714
6.92313788958714
6.92313788958714
6.92313788958714
6.92313788958714
6.92313788958714
6.92313788958714
6.92313788958714
6.92313788958714
6.92313788958714
6.92313788958714
6.92313788958714
6.92313788958714
6.92313788958714
6.92313788958714
6.92313788958714
6.92313788958714
6.92313788958714
6.92313788958714
6.92313788958714
6.92313788958714
6.92313788958714
6.92313788958714
6.92313788958714
6.92313788958714
6.92313788958714
6.92313788958714
6.92313788958714
6.92313788958714
6.92313788958714
6.92313788958714
6.92313788958714
6.92313788958714
6.92313788958714
6.92313788958714
6.92313788958714
6.92313788958714
6.92313788958714
6.92313788958714
6.92313788958714
6.92313788958714
6.92313788958714
6.92313788958714
6.92313788958714
6.92313788958714
6.92313788958714
6.92313788958714
6.92313788958714
6.92313788958714
6.92313788958714
6.92313788958714
6.92313788958714
6.92313788958714
6.92313788958714
6.92313788958714
6.92313788958714
6.92313788958714
6.92313788958714
6.92313788958714
6.92313788958714
6.92313788958714
6.92313788958714
6.92313788958714
6.92313788958714
6.92313788958714
6.92313788958714
6.92313788958714
6.92313788958714
6.92313788958714
6.9107964530679
6.90081256710551
6.90062534038935
6.89362073941762
6.86120337311559
6.85377587632205
6.85377587632205
6.85377587632205
6.73235032505525
6.73235032505525
6.73235032505525
6.72644102623734
6.72507130473131
6.64285299768675
6.62397750566928
6.62397750566928
6.62397750566928
6.62397750566928
6.59249565299864
6.5494021942496
6.520810414672
6.50039538607046
6.46205515703913
6.43756514321329
6.41838605910769
6.37713694458155
6.30178028843044
6.0932217265741
5.59036318741903
5.59036318741903
5.59036318741903
5.59036318741903
5.59036318741903
5.59036318741903
5.59036318741903
5.59036318741903
5.59036318741903
5.59036318741903
5.59036318741903
5.59036318741903
5.59036318741903
5.59036318741903
5.59036318741903
5.59036318741903
5.59036318741903
5.59036318741903
5.59036318741903
5.59036318741903
5.59036318741903
5.59036318741903
5.59036318741903
5.59036318741903
5.59036318741903
5.59036318741903
5.59036318741903
5.59036318741903
5.59036318741903
5.59036318741903
5.59036318741903
5.59036318741903
5.59036318741903
5.59036318741903
5.59036318741903
5.59036318741903
5.59036318741903
5.59036318741903
5.59036318741903
5.59036318741903
5.59036318741903
5.59036318741903
5.59036318741903
5.59036318741903
5.59036318741903
5.59036318741903
5.59036318741903
5.59036318741903
5.59036318741903
5.59036318741903
5.59036318741903
5.59036318741903
5.59036318741903
5.59036318741903
5.59036318741903
5.59036318741903
5.59036318741903
5.59036318741903
5.59036318741903
5.59036318741903
5.59036318741903
5.59036318741903
5.59036318741903
5.59036318741903
5.59036318741903
5.59036318741903
5.59036318741903
5.59036318741903
5.59036318741903
5.59036318741903
5.59036318741903
5.59036318741903
5.59036318741903
5.59036318741903
5.59036318741903
5.59036318741903
5.59036318741903
5.59036318741903
5.59036318741903
5.59036318741903
5.59036318741903
5.59036318741903
5.59036318741903
5.59036318741903
5.59036318741903
5.59036318741903
5.59036318741903
5.59036318741903
5.59036318741903
5.59036318741903
5.59036318741903
5.59036318741903
5.59036318741903
5.59036318741903
5.59036318741903
5.59036318741903
5.59036318741903
5.59036318741903
5.59036318741903
5.59036318741903
5.59036318741903
5.59036318741903
5.59036318741903
5.59036318741903
5.59036318741903
5.59036318741903
5.59036318741903
5.59036318741903
5.59036318741903
5.59036318741903
5.59036318741903
5.59036318741903
5.59036318741903
5.59036318741903
5.59036318741903
5.59036318741903
5.59036318741903
5.59036318741903
5.59036318741903
5.59036318741903
5.59036318741903
5.59036318741903
5.59036318741903
5.59036318741903
5.59036318741903
5.59036318741903
5.59036318741903
5.59036318741903
5.59036318741903
5.59036318741903
5.59036318741903
5.59036318741903
5.59036318741903
5.59036318741903
5.59036318741903
5.59036318741903
5.59036318741903
5.59036318741903
5.59036318741903
5.59036318741903
5.59036318741903
5.59036318741903
5.59036318741903
5.59036318741903
5.59036318741903
5.59036318741903
5.59036318741903
5.59036318741903
5.59036318741903
5.59036318741903
5.59036318741903
5.59036318741903
5.59036318741903
5.59036318741903
5.59036318741903
5.59036318741903
5.59036318741903
5.59036318741903
5.59036318741903
5.59036318741903
5.59036318741903
5.59036318741903
5.59036318741903
5.59036318741903
5.59036318741903
5.59036318741903
5.59036318741903
5.59036318741903
5.59036318741903
5.59036318741903
5.59036318741903
5.59036318741903
5.59036318741903
5.59036318741903
5.59036318741903
5.59036318741903
5.59036318741903
5.59036318741903
5.59036318741903
5.59036318741903
5.59036318741903
5.59036318741903
5.59036318741903
5.59036318741903
5.59036318741903
5.59036318741903
5.59036318741903
5.59036318741903
5.59036318741903
5.59036318741903
5.59036318741903
5.59036318741903
5.59036318741903
5.59036318741903
5.59036318741903
5.59036318741903
5.59036318741903
5.59036318741903
5.59036318741903
5.59036318741903
5.59036318741903
5.59036318741903
5.59036318741903
5.59036318741903
5.59036318741903
5.59036318741903
5.59036318741903
5.59036318741903
5.59036318741903
5.59036318741903
5.59036318741903
5.59036318741903
5.59036318741903
5.59036318741903
5.59036318741903
5.59036318741903
5.59036318741903
5.59036318741903
5.59036318741903
5.59036318741903
5.59036318741903
5.59036318741903
5.59036318741903
5.59036318741903
5.59036318741903
5.59036318741903
5.59036318741903
5.59036318741903
5.59036318741903
5.59036318741903
5.59036318741903
5.59036318741903
5.59036318741903
5.59036318741903
5.59036318741903
5.59036318741903
5.59036318741903
5.59036318741903
5.59036318741903
5.59036318741903
5.59036318741903
5.59036318741903
5.59036318741903
5.59036318741903
5.59036318741903
5.59036318741903
5.59036318741903
5.59036318741903
5.59036318741903
5.59036318741903
5.59036318741903
5.59036318741903
5.59036318741903
5.59036318741903
5.59036318741903
5.59036318741903
5.59036318741903
5.59036318741903
5.59036318741903
5.59036318741903
5.59036318741903
5.59036318741903
5.59036318741903
5.59036318741903
5.59036318741903
5.59036318741903
5.59036318741903
5.59036318741903
5.59036318741903
5.59036318741903
5.59036318741903
5.59036318741903
5.59036318741903
5.59036318741903
5.59036318741903
5.59036318741903
5.59036318741903
5.59036318741903
5.59036318741903
5.59036318741903
5.59036318741903
5.59036318741903
5.59036318741903
5.59036318741903
5.59036318741903
5.59036318741903
5.59036318741903
5.59036318741903
5.59036318741903
5.59036318741903
5.59036318741903
5.59036318741903
5.59036318741903
5.59036318741903
5.59036318741903
5.59036318741903
5.59036318741903
5.59036318741903
5.59036318741903
5.59036318741903
5.59036318741903
5.59036318741903
5.59036318741903
5.59036318741903
5.59036318741903
5.59036318741903
5.59036318741903
5.59036318741903
5.59036318741903
5.59036318741903
5.59036318741903
5.59036318741903
5.59036318741903
5.59036318741903
5.59036318741903
5.59036318741903
5.59036318741903
5.59036318741903
5.59036318741903
5.59036318741903
5.59036318741903
5.59036318741903
5.59036318741903
5.59036318741903
5.59036318741903
5.59036318741903
5.59036318741903
5.59036318741903
5.59036318741903
5.59036318741903
5.59036318741903
5.59036318741903
5.59036318741903
5.59036318741903
5.59036318741903
5.59036318741903
5.59036318741903
5.59036318741903
5.59036318741903
5.59036318741903
5.59036318741903
5.59036318741903
5.59036318741903
5.59036318741903
5.59036318741903
5.59036318741903
5.59036318741903
5.59036318741903
5.59036318741903
5.59036318741903
5.59036318741903
5.59036318741903
5.59036318741903
5.59036318741903
5.59036318741903
5.59036318741903
5.59036318741903
5.59036318741903
5.59036318741903
5.59036318741903
5.59036318741903
5.59036318741903
5.59036318741903
5.59036318741903
5.59036318741903
5.59036318741903
5.59036318741903
5.59036318741903
5.59036318741903
5.59036318741903
5.59036318741903
5.59036318741903
5.59036318741903
5.59036318741903
5.59036318741903
5.59036318741903
5.59036318741903
5.59036318741903
5.59036318741903
5.59036318741903
5.59036318741903
5.59036318741903
5.59036318741903
5.59036318741903
5.59036318741903
5.59036318741903
5.59036318741903
5.59036318741903
5.59036318741903
5.59036318741903
5.59036318741903
5.59036318741903
5.59036318741903
5.59036318741903
5.6259184618064
5.70330743200799
5.76665228472192
5.80839728553879
5.84212280482287
5.88024462805978
5.94525051782521
6.03452994135179
6.15435227609727
6.30858461841146
6.45176120711737
6.64091256255736
6.820399414065
6.820399414065
6.820399414065
6.820399414065
6.820399414065
6.820399414065
6.820399414065
6.820399414065
6.820399414065
6.820399414065
6.820399414065
6.820399414065
6.820399414065
6.820399414065
6.820399414065
6.820399414065
6.820399414065
6.820399414065
6.820399414065
6.820399414065
6.820399414065
6.820399414065
6.820399414065
6.820399414065
6.820399414065
6.820399414065
6.820399414065
6.820399414065
6.820399414065
6.820399414065
6.820399414065
6.820399414065
6.820399414065
6.820399414065
6.820399414065
6.820399414065
6.820399414065
6.820399414065
6.820399414065
6.820399414065
6.820399414065
6.820399414065
6.820399414065
6.820399414065
6.820399414065
6.820399414065
6.820399414065
6.820399414065
6.820399414065
6.820399414065
6.820399414065
6.820399414065
6.820399414065
6.820399414065
6.820399414065
6.820399414065
6.820399414065
6.820399414065
6.820399414065
6.820399414065
6.820399414065
6.820399414065
6.820399414065
6.820399414065
6.820399414065
6.820399414065
6.820399414065
6.820399414065
6.820399414065
6.820399414065
6.820399414065
6.820399414065
6.820399414065
6.820399414065
6.820399414065
6.820399414065
6.820399414065
6.820399414065
6.820399414065
6.820399414065
6.820399414065
6.820399414065
6.820399414065
6.820399414065
6.820399414065
6.820399414065
6.820399414065
6.820399414065
6.820399414065
6.820399414065
6.820399414065
6.820399414065
6.820399414065
6.820399414065
6.820399414065
6.820399414065
6.820399414065
6.820399414065
6.820399414065
6.820399414065
6.820399414065
6.820399414065
6.820399414065
6.820399414065
6.820399414065
6.820399414065
6.76668010239924
6.67698291510813
6.64091256255736
6.64091256255736
6.64091256255736
6.64091256255736
6.64091256255736
6.64091256255736
6.64091256255736
6.55910088126576
6.4882342925865
6.43816356897737
6.38739880251915
6.32923118193059
6.26806593576129
6.21374249621693
6.13418184566786
6.06216114824999
6.03541056930327
6.00212562471301
5.96219687797109
5.93337270402866
5.87070826534685
5.79674363276726
5.72720693650801
5.65715603700654
5.59036318741903
5.59036318741903
5.59036318741903
5.59036318741903
5.59036318741903
5.59036318741903
5.59036318741903
5.59036318741903
5.59036318741903
5.59036318741903
5.59036318741903
5.59036318741903
5.59036318741903
5.59036318741903
5.59036318741903
5.59036318741903
5.59036318741903
5.59036318741903
5.59036318741903
5.59036318741903
5.59036318741903
5.59036318741903
5.59036318741903
5.59036318741903
5.59036318741903
5.59036318741903
5.59036318741903
5.59036318741903
5.59036318741903
5.59036318741903
5.59036318741903
5.59036318741903
5.59036318741903
5.59036318741903
5.59036318741903
5.59036318741903
5.59036318741903
5.59036318741903
5.59036318741903
5.59036318741903
5.59036318741903
5.59036318741903
5.59036318741903
5.59036318741903
5.59036318741903
5.59036318741903
5.59036318741903
5.59036318741903
5.59036318741903
5.59036318741903
5.59036318741903
5.59036318741903
5.59036318741903
5.59036318741903
5.59036318741903
5.59036318741903
5.59036318741903
5.59036318741903
5.59036318741903
5.59036318741903
5.59036318741903
5.59036318741903
5.59036318741903
5.59036318741903
5.59036318741903
5.59036318741903
5.59036318741903
5.59036318741903
5.59036318741903
5.59036318741903
5.59036318741903
5.59036318741903
5.59036318741903
5.59036318741903
5.59036318741903
5.59036318741903
5.59036318741903
5.59036318741903
5.59036318741903
5.59036318741903
5.59036318741903
5.59036318741903
5.59036318741903
5.59036318741903
5.59036318741903
5.59036318741903
5.59036318741903
5.59036318741903
5.59036318741903
5.59036318741903
5.59036318741903
5.59036318741903
5.59036318741903
5.59036318741903
5.59036318741903
5.59036318741903
5.59036318741903
5.59036318741903
5.59036318741903
5.59036318741903
5.59036318741903
5.59036318741903
5.59036318741903
5.59036318741903
5.59036318741903
5.59036318741903
5.59036318741903
5.59036318741903
5.59036318741903
5.59036318741903
5.59036318741903
5.59036318741903
5.59036318741903
5.59036318741903
5.59036318741903
5.59036318741903
5.59036318741903
5.59036318741903
5.59036318741903
5.59036318741903
5.59036318741903
5.59036318741903
5.59036318741903
5.59036318741903
5.59036318741903
5.59036318741903
5.59036318741903
5.59036318741903
5.59036318741903
5.59036318741903
5.59036318741903
5.59036318741903
5.59036318741903
5.59036318741903
5.59036318741903
5.59036318741903
5.59036318741903
5.59036318741903
5.59036318741903
5.59036318741903
5.59036318741903
5.59036318741903
5.59036318741903
5.59036318741903
5.59036318741903
5.59036318741903
5.59036318741903
5.59036318741903
5.59036318741903
5.59036318741903
5.59036318741903
5.59036318741903
5.59036318741903
5.59036318741903
5.59036318741903
5.59036318741903
5.59036318741903
5.59036318741903
5.59036318741903
5.59036318741903
5.59036318741903
5.59036318741903
5.59036318741903
5.59036318741903
5.59036318741903
5.59036318741903
5.59036318741903
5.59036318741903
5.59036318741903
5.59036318741903
5.59036318741903
5.59036318741903
5.59036318741903
5.59036318741903
5.59036318741903
5.59036318741903
5.59036318741903
5.59036318741903
5.59036318741903
5.59036318741903
5.59036318741903
5.59036318741903
5.59036318741903
5.59036318741903
5.59036318741903
5.59036318741903
5.59036318741903
5.67466092506285
6.01640154295355
6.31481229924074
6.48613906536028
6.61117333057395
6.72043011306444
6.88336727468555
7.03038318599248
7.178021615102
7.24218310456117
7.24218310456117
7.24218310456117
7.24218310456117
7.24218310456117
7.25433871051161
7.25433871051161
7.28091554355377
7.37585506402292
7.48500629823809
7.57052847889088
7.61419728548925
7.62890190540551
7.67233212316137
7.75379228596249
7.77703865964199
7.79354596834276
7.79354596834276
7.79354596834276
7.79354596834276
7.79354596834276
7.87143499588795
7.87143499588795
7.87143499588795
7.87143499588795
7.87143499588795
7.87143499588795
7.87143499588795
7.87143499588795
7.87143499588795
7.87143499588795
7.87143499588795
7.87143499588795
7.87143499588795
7.87143499588795
7.87143499588795
7.87143499588795
7.87143499588795
7.87143499588795
7.87143499588795
7.87143499588795
7.87143499588795
7.87143499588795
7.87143499588795
7.87143499588795
7.87143499588795
7.87143499588795
7.87143499588795
7.87143499588795
7.87143499588795
7.87143499588795
7.87143499588795
7.87143499588795
7.87143499588795
7.87143499588795
7.87143499588795
7.87143499588795
7.87143499588795
7.87143499588795
7.87143499588795
7.87143499588795
7.87143499588795
7.87143499588795
7.87143499588795
7.87143499588795
7.87143499588795
7.87143499588795
7.87143499588795
7.87143499588795
7.87143499588795
7.87143499588795
7.87143499588795
7.87143499588795
7.87143499588795
7.87143499588795
7.87143499588795
7.87143499588795
7.87143499588795
7.87143499588795
7.87143499588795
7.87143499588795
7.87143499588795
7.87143499588795
7.87143499588795
7.87143499588795
7.87143499588795
7.87143499588795
7.87143499588795
7.87143499588795
7.87143499588795
7.87143499588795
7.87143499588795
7.87143499588795
7.87143499588795
7.87143499588795
7.87143499588795
7.87143499588795
7.87143499588795
7.87143499588795
7.87143499588795
7.87143499588795
7.87143499588795
7.87143499588795
7.87143499588795
7.87143499588795
7.87143499588795
7.87143499588795
7.87143499588795
7.87143499588795
7.87143499588795
7.87143499588795
7.87143499588795
7.87143499588795
7.87143499588795
7.87143499588795
7.87143499588795
7.87143499588795
7.87143499588795
7.87143499588795
7.87143499588795
7.87143499588795
7.87143499588795
7.87143499588795
7.87143499588795
7.87143499588795
7.87143499588795
7.87143499588795
7.87143499588795
7.87143499588795
7.87143499588795
7.87143499588795
7.87143499588795
7.87143499588795
7.87143499588795
7.87143499588795
7.87143499588795
7.87143499588795
7.87143499588795
7.87143499588795
7.87143499588795
7.87143499588795
7.87143499588795
7.87143499588795
7.87143499588795
7.87143499588795
7.87143499588795
9.18748442848398
9.18748442848398
9.18748442848398
9.18748442848398
9.18748442848398
9.18748442848398
9.18748442848398
9.18748442848398
9.18748442848398
9.18748442848398
9.18748442848398
9.18748442848398
9.18748442848398
9.18748442848398
9.18748442848398
9.18748442848398
9.18748442848398
9.18748442848398
9.18748442848398
9.18748442848398
9.18748442848398
9.18748442848398
9.18748442848398
9.18748442848398
9.18748442848398
9.18748442848398
9.18748442848398
9.18748442848398
9.18748442848398
9.18748442848398
9.18748442848398
9.18748442848398
9.18748442848398
9.18748442848398
9.18748442848398
9.18748442848398
9.18748442848398
9.18748442848398
9.18748442848398
9.18748442848398
9.18748442848398
9.18748442848398
9.18748442848398
9.18748442848398
9.18748442848398
9.18748442848398
9.18748442848398
9.18748442848398
9.18748442848398
9.18748442848398
9.18748442848398
9.18748442848398
9.18748442848398
9.18748442848398
9.18748442848398
9.18748442848398
9.18748442848398
9.18748442848398
9.18748442848398
9.18748442848398
9.18748442848398
9.18748442848398
9.18748442848398
9.18748442848398
9.18748442848398
9.18748442848398
9.18748442848398
9.18748442848398
9.18748442848398
9.18748442848398
9.18748442848398
9.18748442848398
9.18748442848398
9.18748442848398
9.18748442848398
9.18748442848398
9.18748442848398
9.18748442848398
9.18748442848398
9.18748442848398
9.18748442848398
9.18748442848398
9.18748442848398
9.18748442848398
9.18748442848398
9.18748442848398
9.18748442848398
9.18748442848398
9.18748442848398
9.18748442848398
9.18748442848398
9.18748442848398
9.18748442848398
9.18748442848398
9.18748442848398
9.18748442848398
9.18748442848398
9.18748442848398
9.18748442848398
9.18748442848398
9.18748442848398
9.18748442848398
8.67784871129029
8.67784871129029
8.67784871129029
8.67784871129029
8.67784871129029
8.67784871129029
8.67784871129029
8.67784871129029
8.67784871129029
8.67784871129029
8.67784871129029
8.67784871129029
8.67784871129029
8.67784871129029
8.67784871129029
8.67784871129029
8.67784871129029
8.67784871129029
8.67784871129029
8.67784871129029
8.67784871129029
8.67784871129029
8.67784871129029
8.67784871129029
8.67784871129029
8.67784871129029
8.67784871129029
8.67784871129029
8.67784871129029
8.67784871129029
8.67784871129029
8.67784871129029
8.67784871129029
8.67784871129029
8.67784871129029
8.67784871129029
8.67784871129029
8.67784871129029
8.67784871129029
8.67784871129029
8.67784871129029
8.67784871129029
8.67784871129029
8.67784871129029
8.67784871129029
8.67784871129029
8.67784871129029
8.67784871129029
8.67784871129029
8.67784871129029
8.67784871129029
8.67784871129029
8.67784871129029
8.67784871129029
8.67784871129029
8.67784871129029
8.67784871129029
8.67784871129029
8.67784871129029
8.67784871129029
8.67784871129029
8.67784871129029
8.67784871129029
8.67784871129029
8.67784871129029
8.67784871129029
8.67784871129029
8.67784871129029
8.67784871129029
8.67784871129029
8.67784871129029
8.67784871129029
8.67784871129029
8.67784871129029
8.67784871129029
8.67784871129029
8.67784871129029
8.67784871129029
8.67784871129029
8.67784871129029
8.67784871129029
8.67784871129029
8.67784871129029
8.67784871129029
8.67784871129029
8.67784871129029
8.67784871129029
8.67784871129029
8.67784871129029
8.67784871129029
8.67784871129029
8.67784871129029
8.67784871129029
8.67784871129029
8.67784871129029
8.67784871129029
8.67784871129029
8.67784871129029
8.67784871129029
8.67784871129029
8.67784871129029
8.67784871129029
8.67784871129029
8.67784871129029
8.67784871129029
8.67784871129029
8.67784871129029
8.67784871129029
8.67784871129029
8.67784871129029
8.67784871129029
8.67784871129029
8.67784871129029
8.67784871129029
8.67784871129029
8.67784871129029
8.67784871129029
8.67784871129029
8.67784871129029
8.67784871129029
8.67784871129029
8.67784871129029
8.67784871129029
8.67784871129029
8.67784871129029
8.67784871129029
8.67784871129029
8.67784871129029
8.67784871129029
8.67784871129029
8.67784871129029
8.67784871129029
8.67784871129029
8.67784871129029
8.67784871129029
8.67784871129029
8.67784871129029
8.67784871129029
8.67784871129029
8.67784871129029
8.67784871129029
8.67784871129029
8.67784871129029
8.67784871129029
8.67784871129029
8.67784871129029
8.67784871129029
8.67784871129029
8.67784871129029
8.67784871129029
8.67784871129029
8.65638583773536
8.61595460361462
8.61595460361462
8.61595460361462
8.61595460361462
8.40489911230868
8.05567922355639
7.74238004244738
7.5697325684803
7.32921862009318
6.95036559585255
6.51555731163254
6.11101683384035
5.82864061098299
5.61214368387473
5.2774372887586
4.97370844312469
4.97370844312469
4.97370844312469
4.97370844312469
4.97370844312469
4.97370844312469
4.97370844312469
4.97370844312469
4.97370844312469
4.97370844312469
4.97370844312469
4.97370844312469
4.97370844312469
4.97370844312469
4.97370844312469
4.97370844312469
4.97370844312469
4.97370844312469
4.97370844312469
4.97370844312469
4.97370844312469
4.97370844312469
4.97370844312469
4.97370844312469
4.97370844312469
4.97370844312469
4.97370844312469
4.97370844312469
4.97370844312469
4.97370844312469
4.97370844312469
4.97370844312469
4.97370844312469
4.97370844312469
4.97370844312469
4.97370844312469
4.97370844312469
4.97370844312469
4.97370844312469
4.97370844312469
4.97370844312469
4.97370844312469
4.97370844312469
4.97370844312469
4.97370844312469
4.97370844312469
4.97370844312469
4.97370844312469
4.97370844312469
4.97370844312469
4.97370844312469
4.97370844312469
4.97370844312469
4.97370844312469
4.97370844312469
4.97370844312469
4.97370844312469
4.97370844312469
4.97370844312469
4.97370844312469
4.97370844312469
4.97370844312469
4.97370844312469
4.97370844312469
4.97370844312469
4.97370844312469
4.97370844312469
4.97370844312469
4.97370844312469
4.97370844312469
4.73912628675862
4.73912628675862
4.73912628675862
4.73912628675862
4.73912628675862
4.73912628675862
4.73912628675862
4.73912628675862
4.73912628675862
4.73912628675862
4.73912628675862
4.73912628675862
4.73912628675862
4.73912628675862
4.73912628675862
4.73912628675862
4.73912628675862
4.73912628675862
4.73912628675862
4.73912628675862
4.73912628675862
4.73912628675862
4.73912628675862
4.73912628675862
4.73912628675862
4.73912628675862
4.73912628675862
4.73912628675862
4.73912628675862
4.73912628675862
4.73912628675862
4.73912628675862
4.73912628675862
4.73912628675862
4.73912628675862
4.73912628675862
4.73912628675862
4.73912628675862
4.73912628675862
4.73912628675862
4.73912628675862
4.73912628675862
4.73912628675862
4.73912628675862
4.73912628675862
4.73912628675862
4.73912628675862
4.73912628675862
4.73912628675862
4.73912628675862
4.73912628675862
4.73912628675862
4.73912628675862
4.73912628675862
4.73912628675862
4.73912628675862
4.73912628675862
4.73912628675862
4.73912628675862
4.73912628675862
4.73912628675862
4.73912628675862
4.73912628675862
4.73912628675862
4.73912628675862
4.73912628675862
4.73912628675862
4.73912628675862
4.73912628675862
4.73912628675862
4.73912628675862
4.73912628675862
4.73912628675862
4.73912628675862
4.73912628675862
4.73912628675862
4.73912628675862
4.73912628675862
4.73912628675862
4.73912628675862
4.73912628675862
4.73912628675862
4.73912628675862
4.73912628675862
4.73912628675862
4.73912628675862
4.73912628675862
4.73912628675862
4.73912628675862
4.73912628675862
4.73912628675862
4.73912628675862
4.73912628675862
4.73912628675862
4.73912628675862
4.73912628675862
4.73912628675862
4.73912628675862
4.73912628675862
4.73912628675862
4.73912628675862
4.73912628675862
4.73912628675862
4.73912628675862
4.73912628675862
4.73912628675862
4.73912628675862
4.73912628675862
4.73912628675862
4.73912628675862
4.73912628675862
4.73912628675862
4.73912628675862
4.73912628675862
4.73912628675862
4.73912628675862
4.73912628675862
4.73912628675862
4.73912628675862
4.73912628675862
4.73912628675862
4.73912628675862
4.73912628675862
4.73912628675862
4.73912628675862
4.73912628675862
4.73912628675862
4.73912628675862
4.73912628675862
4.73912628675862
4.73912628675862
4.73912628675862
4.73912628675862
4.73912628675862
4.73912628675862
4.73912628675862
4.73912628675862
4.73912628675862
4.73912628675862
4.73912628675862
4.73912628675862
4.73912628675862
4.73912628675862
4.73912628675862
4.73912628675862
4.73912628675862
4.73912628675862
4.73912628675862
4.73912628675862
4.73912628675862
4.73912628675862
4.73912628675862
4.73912628675862
4.73912628675862
4.73912628675862
4.73912628675862
4.73912628675862
4.73912628675862
4.73912628675862
4.73912628675862
4.73912628675862
4.73912628675862
4.73912628675862
4.73912628675862
4.73912628675862
4.73912628675862
4.73912628675862
4.73912628675862
4.73912628675862
4.73912628675862
4.73912628675862
4.73912628675862
4.73912628675862
4.73912628675862
4.73912628675862
4.73912628675862
4.73912628675862
4.73912628675862
4.73912628675862
4.73912628675862
4.73912628675862
4.73912628675862
4.73912628675862
4.73912628675862
4.73912628675862
4.73912628675862
4.73912628675862
4.73912628675862
4.73912628675862
4.73912628675862
4.73912628675862
4.73912628675862
4.73912628675862
4.73912628675862
4.73912628675862
4.73912628675862
4.73912628675862
4.73912628675862
4.73912628675862
4.73912628675862
4.73912628675862
4.73912628675862
4.73912628675862
4.73912628675862
4.73912628675862
4.73912628675862
4.73912628675862
4.73912628675862
4.73912628675862
4.73912628675862
4.73912628675862
4.73912628675862
4.73912628675862
4.73912628675862
4.73912628675862
4.73912628675862
4.73912628675862
4.73912628675862
4.73912628675862
4.73912628675862
4.73912628675862
4.73912628675862
4.73912628675862
4.73912628675862
4.73912628675862
4.73912628675862
4.73912628675862
4.73912628675862
4.73912628675862
4.73912628675862
4.73912628675862
4.73912628675862
4.73912628675862
4.73912628675862
4.73912628675862
4.73912628675862
4.73912628675862
4.73912628675862
4.73912628675862
4.73912628675862
4.73912628675862
4.73912628675862
4.73912628675862
4.73912628675862
4.73912628675862
4.73912628675862
4.73912628675862
4.73912628675862
4.73912628675862
4.73912628675862
4.73912628675862
4.73912628675862
4.73912628675862
4.73912628675862
4.73912628675862
4.73912628675862
4.73912628675862
4.73912628675862
4.73912628675862
4.73912628675862
4.73912628675862
4.73912628675862
4.73912628675862
4.73912628675862
4.73912628675862
4.73912628675862
4.73912628675862
4.73912628675862
4.73912628675862
4.73912628675862
4.73912628675862
4.73912628675862
4.73912628675862
4.73912628675862
4.73912628675862
4.73912628675862
4.73912628675862
4.73912628675862
4.73912628675862
4.73912628675862
4.73912628675862
4.73912628675862
4.73912628675862
4.73912628675862
4.73912628675862
4.73912628675862
4.73912628675862
4.73912628675862
4.73912628675862
4.73912628675862
4.73912628675862
4.73912628675862
4.73912628675862
4.73912628675862
4.73912628675862
4.73912628675862
4.73912628675862
4.73912628675862
4.73912628675862
4.73912628675862
4.67116248715715
4.55411726676118
4.55411726676118
4.55411726676118
4.55411726676118
4.55411726676118
4.55411726676118
4.55411726676118
4.55411726676118
4.55411726676118
4.55411726676118
4.55411726676118
4.55411726676118
4.55411726676118
4.55411726676118
4.55411726676118
4.55411726676118
4.55411726676118
4.55411726676118
4.55411726676118
4.55411726676118
4.55411726676118
4.55411726676118
4.55411726676118
4.55411726676118
4.55411726676118
4.55411726676118
4.55411726676118
4.55411726676118
4.55411726676118
4.55411726676118
4.55411726676118
4.55411726676118
4.55411726676118
4.55411726676118
4.55411726676118
4.55411726676118
4.55411726676118
4.55411726676118
4.55411726676118
4.55411726676118
4.55411726676118
4.55411726676118
4.55411726676118
4.55411726676118
4.55411726676118
4.55411726676118
4.55411726676118
4.55411726676118
4.55411726676118
4.55411726676118
4.55411726676118
4.55411726676118
4.55411726676118
4.55411726676118
4.55411726676118
4.55411726676118
4.55411726676118
4.55411726676118
4.55411726676118
4.55411726676118
4.55411726676118
4.55411726676118
4.55411726676118
4.55411726676118
4.55411726676118
4.55411726676118
4.55411726676118
4.55411726676118
4.55411726676118
4.55411726676118
4.55411726676118
4.55411726676118
4.55411726676118
4.55411726676118
4.55411726676118
4.55411726676118
4.55411726676118
4.55411726676118
4.55411726676118
4.55411726676118
4.55411726676118
4.55411726676118
4.55411726676118
4.55411726676118
4.55411726676118
4.55411726676118
4.55411726676118
4.55411726676118
4.55411726676118
4.55411726676118
4.55411726676118
4.55411726676118
4.55411726676118
4.55411726676118
4.55411726676118
4.55411726676118
4.55411726676118
4.55411726676118
4.55411726676118
4.55411726676118
4.55411726676118
4.55411726676118
4.55411726676118
4.55411726676118
4.55411726676118
4.55411726676118
4.55411726676118
4.55411726676118
4.55411726676118
4.55411726676118
4.55411726676118
4.55411726676118
4.55411726676118
4.55411726676118
4.55411726676118
4.55411726676118
4.55411726676118
4.55411726676118
4.55411726676118
4.55411726676118
4.55411726676118
4.55411726676118
4.55411726676118
4.55411726676118
4.55411726676118
4.55411726676118
4.55411726676118
4.55411726676118
4.55411726676118
4.55411726676118
4.55411726676118
4.55411726676118
4.55411726676118
4.55411726676118
4.55411726676118
4.55411726676118
4.55411726676118
4.55411726676118
4.55411726676118
4.55411726676118
4.55411726676118
4.55411726676118
4.55411726676118
4.55411726676118
4.55411726676118
4.55411726676118
4.55411726676118
4.55411726676118
4.55411726676118
4.55411726676118
4.55411726676118
4.55411726676118
4.55411726676118
4.55411726676118
4.55411726676118
4.55411726676118
4.55411726676118
4.55411726676118
4.55411726676118
4.55411726676118
4.55411726676118
4.55411726676118
4.55411726676118
4.55411726676118
4.55411726676118
4.55411726676118
4.55411726676118
4.55411726676118
4.55411726676118
4.55411726676118
4.55411726676118
4.55411726676118
4.55411726676118
4.55411726676118
4.55411726676118
4.55411726676118
4.55411726676118
4.55411726676118
4.55411726676118
4.55411726676118
4.55411726676118
4.55411726676118
4.55411726676118
4.55411726676118
4.55411726676118
4.55411726676118
4.55411726676118
4.55411726676118
4.55411726676118
4.55411726676118
4.55411726676118
4.55411726676118
4.55411726676118
4.55411726676118
4.55411726676118
4.55411726676118
4.55411726676118
4.55411726676118
4.55411726676118
4.55411726676118
4.55411726676118
4.55411726676118
4.55411726676118
4.55411726676118
4.55411726676118
4.55411726676118
4.55411726676118
4.55411726676118
4.55411726676118
4.55411726676118
4.55411726676118
4.55411726676118
4.55411726676118
4.55411726676118
4.55411726676118
4.55411726676118
4.55411726676118
4.55411726676118
4.55411726676118
4.55411726676118
4.55411726676118
4.55411726676118
4.55411726676118
4.55411726676118
4.55411726676118
4.55411726676118
4.55411726676118
4.55411726676118
4.55411726676118
4.55411726676118
4.55411726676118
4.55411726676118
4.55411726676118
4.55411726676118
4.55411726676118
4.55411726676118
4.55411726676118
4.55411726676118
4.55411726676118
4.55411726676118
4.55411726676118
4.55411726676118
4.55411726676118
4.55411726676118
4.55411726676118
4.55411726676118
4.55411726676118
4.55411726676118
4.55411726676118
4.55411726676118
4.55411726676118
4.55411726676118
4.55411726676118
4.55411726676118
4.55411726676118
4.55411726676118
4.55411726676118
4.55411726676118
4.55411726676118
4.55411726676118
4.55411726676118
4.55411726676118
4.55411726676118
4.55411726676118
4.55411726676118
4.55411726676118
4.55411726676118
4.55411726676118
4.55411726676118
4.55411726676118
4.55411726676118
4.55411726676118
4.55411726676118
4.55411726676118
4.55411726676118
4.55411726676118
4.55411726676118
4.55411726676118
4.55411726676118
4.55411726676118
4.55411726676118
4.55411726676118
4.55411726676118
4.55411726676118
4.55411726676118
4.55411726676118
4.55411726676118
4.55411726676118
4.55411726676118
4.55411726676118
4.55411726676118
4.55411726676118
4.55411726676118
4.55411726676118
4.55411726676118
4.55411726676118
4.55411726676118
4.30212528588249
4.30212528588249
4.30212528588249
4.30212528588249
4.30212528588249
4.30212528588249
4.30212528588249
4.30212528588249
4.30212528588249
4.30212528588249
4.30212528588249
4.30212528588249
4.30212528588249
4.30212528588249
4.30212528588249
4.30212528588249
4.30212528588249
4.30212528588249
4.30212528588249
4.30212528588249
4.30212528588249
4.30212528588249
4.30212528588249
4.30212528588249
4.30212528588249
4.30212528588249
4.30212528588249
4.30212528588249
4.30212528588249
4.30212528588249
4.30212528588249
4.30212528588249
4.30212528588249
4.30212528588249
4.30212528588249
4.30212528588249
4.30212528588249
4.30212528588249
4.30212528588249
4.30212528588249
4.30212528588249
4.30212528588249
4.30212528588249
4.30212528588249
4.30212528588249
4.30212528588249
4.30212528588249
4.30212528588249
4.30212528588249
4.30212528588249
4.30212528588249
4.30212528588249
4.30212528588249
4.30212528588249
4.30212528588249
4.30212528588249
4.30212528588249
4.30212528588249
4.30212528588249
4.30212528588249
4.30212528588249
4.30212528588249
4.30212528588249
4.30212528588249
4.30212528588249
4.30212528588249
4.30212528588249
4.30212528588249
4.30212528588249
4.30212528588249
4.30212528588249
4.30212528588249
4.30212528588249
4.30212528588249
4.30212528588249
4.30212528588249
4.30212528588249
4.30212528588249
4.30212528588249
4.30212528588249
4.30212528588249
4.30212528588249
4.30212528588249
4.30212528588249
4.30212528588249
4.30212528588249
4.30212528588249
4.30212528588249
4.30212528588249
4.30212528588249
4.30212528588249
4.30212528588249
4.30212528588249
4.30212528588249
4.30212528588249
4.30212528588249
4.30212528588249
4.30212528588249
4.30212528588249
4.30212528588249
4.30212528588249
4.30212528588249
4.30212528588249
4.30212528588249
4.30212528588249
4.30212528588249
4.30212528588249
4.30212528588249
4.30212528588249
4.30212528588249
4.30212528588249
4.30212528588249
4.30212528588249
4.30212528588249
4.30212528588249
4.30212528588249
4.30212528588249
4.30212528588249
4.30212528588249
4.30212528588249
4.30212528588249
4.30212528588249
4.30212528588249
4.30212528588249
4.30212528588249
4.30212528588249
4.30212528588249
4.30212528588249
4.30212528588249
4.30212528588249
4.30212528588249
4.30212528588249
4.30212528588249
4.30212528588249
4.30212528588249
4.30212528588249
4.30212528588249
4.30212528588249
4.30212528588249
4.30212528588249
4.30212528588249
4.30212528588249
4.30212528588249
4.30212528588249
4.30212528588249
4.30212528588249
4.30212528588249
4.30212528588249
4.30212528588249
4.30212528588249
4.30212528588249
4.30212528588249
4.30212528588249
4.30212528588249
4.30212528588249
4.30212528588249
4.30212528588249
4.30212528588249
4.30212528588249
4.30212528588249
4.30212528588249
4.30212528588249
4.30212528588249
4.30212528588249
4.30212528588249
4.30212528588249
4.30212528588249
4.30212528588249
4.30212528588249
4.30212528588249
4.30212528588249
4.30212528588249
4.30212528588249
4.30212528588249
4.30212528588249
4.30212528588249
4.30212528588249
4.30212528588249
4.30212528588249
4.30212528588249
4.30212528588249
4.30212528588249
4.30212528588249
4.30212528588249
4.30212528588249
4.30212528588249
4.30212528588249
4.30212528588249
4.30212528588249
4.30212528588249
4.30212528588249
4.30212528588249
4.30212528588249
4.30212528588249
4.30212528588249
4.30212528588249
4.30212528588249
4.30212528588249
4.30212528588249
4.30212528588249
4.30212528588249
4.30212528588249
4.30212528588249
4.30212528588249
4.30212528588249
4.30212528588249
4.30212528588249
4.30212528588249
4.30212528588249
4.30212528588249
4.30212528588249
4.30212528588249
4.30212528588249
4.30212528588249
4.30212528588249
4.30212528588249
4.30212528588249
4.09971114451582
4.09971114451582
4.09971114451582
4.09971114451582
4.09971114451582
4.09971114451582
4.09971114451582
4.09971114451582
4.09971114451582
4.09971114451582
4.09971114451582
4.09971114451582
4.09971114451582
4.09971114451582
4.09971114451582
4.09971114451582
4.09971114451582
4.09971114451582
4.09971114451582
4.09971114451582
4.09971114451582
4.09971114451582
4.09971114451582
4.09971114451582
4.09971114451582
4.09971114451582
4.09971114451582
4.09971114451582
4.09971114451582
4.09971114451582
4.09971114451582
4.09971114451582
4.09971114451582
4.09971114451582
4.09971114451582
4.09971114451582
4.09971114451582
4.09971114451582
4.09971114451582
4.09971114451582
4.09971114451582
4.09971114451582
4.09971114451582
4.09971114451582
4.09971114451582
4.09971114451582
4.09971114451582
4.09971114451582
4.09971114451582
4.09971114451582
4.09971114451582
4.09971114451582
4.09971114451582
4.09971114451582
4.09971114451582
4.09971114451582
4.09971114451582
4.09971114451582
4.09971114451582
4.09971114451582
4.09971114451582
4.09971114451582
4.09971114451582
4.09971114451582
4.09971114451582
4.09971114451582
4.09971114451582
4.09971114451582
4.09971114451582
4.09971114451582
4.09971114451582
4.09971114451582
4.09971114451582
4.09971114451582
4.09971114451582
4.09971114451582
4.09971114451582
4.09971114451582
4.09971114451582
4.09971114451582
4.09971114451582
4.09971114451582
4.09971114451582
4.09971114451582
4.09971114451582
4.09971114451582
4.09971114451582
4.09971114451582
4.09971114451582
4.09971114451582
4.09971114451582
4.09971114451582
4.09971114451582
4.09971114451582
4.09971114451582
4.09971114451582
4.09971114451582
4.09971114451582
4.09971114451582
4.09971114451582
4.09971114451582
4.09971114451582
4.09971114451582
4.09971114451582
4.09971114451582
4.09971114451582
4.09971114451582
4.09971114451582
4.09971114451582
4.09971114451582
4.09971114451582
4.09971114451582
4.09971114451582
4.09971114451582
4.09971114451582
4.09971114451582
4.09971114451582
4.09971114451582
4.09971114451582
4.09971114451582
4.09971114451582
4.09971114451582
4.09971114451582
4.09971114451582
4.09971114451582
4.09971114451582
4.09971114451582
4.09971114451582
4.09971114451582
4.09971114451582
4.09971114451582
4.09971114451582
4.09971114451582
4.09971114451582
4.09971114451582
4.09971114451582
4.09971114451582
4.09971114451582
4.09971114451582
4.09971114451582
4.09971114451582
4.09971114451582
4.09971114451582
4.09971114451582
4.09971114451582
4.09971114451582
4.09971114451582
4.09971114451582
4.09971114451582
4.09971114451582
4.09971114451582
4.09971114451582
4.09971114451582
4.09971114451582
4.09971114451582
4.09971114451582
4.09971114451582
4.09971114451582
4.09971114451582
4.09971114451582
4.09971114451582
4.09971114451582
4.09971114451582
4.09971114451582
4.09971114451582
4.09971114451582
4.09971114451582
4.09971114451582
4.09971114451582
4.09971114451582
4.09971114451582
4.09971114451582
4.09971114451582
4.09971114451582
4.09971114451582
4.09971114451582
4.09971114451582
4.09971114451582
4.09971114451582
4.09971114451582
4.09971114451582
4.09971114451582
4.09971114451582
4.09971114451582
4.09971114451582
4.09971114451582
4.09971114451582
4.09971114451582
4.09971114451582
4.09971114451582
4.09971114451582
4.09971114451582
4.09971114451582
4.09971114451582
4.09971114451582
4.09971114451582
4.09971114451582
4.09971114451582
4.09971114451582
4.09971114451582
4.09971114451582
4.09971114451582
4.10471310800745
4.1581201134908
4.18270354627152
4.19810177787153
4.20639640283909
4.21464333548007
4.23084973455249
4.25031512432465
4.2612807157189
4.26238595230444
4.26238595230444
4.26238595230444
4.26238595230444
4.26238595230444
4.26238595230444
4.26238595230444
4.26238595230444
4.26238595230444
4.26238595230444
4.26238595230444
4.26238595230444
4.26238595230444
4.26238595230444
4.26238595230444
4.26238595230444
4.26238595230444
4.26238595230444
4.26238595230444
4.26238595230444
4.26238595230444
4.26238595230444
4.26238595230444
4.26238595230444
4.26238595230444
4.26238595230444
4.26238595230444
4.26238595230444
4.26238595230444
4.26238595230444
4.26238595230444
4.26238595230444
4.26238595230444
4.26238595230444
4.26238595230444
4.26238595230444
4.26238595230444
4.26238595230444
4.26238595230444
4.26238595230444
4.26238595230444
4.26238595230444
4.26238595230444
4.26238595230444
4.26238595230444
4.26238595230444
4.26238595230444
4.26238595230444
4.26238595230444
4.26238595230444
4.26238595230444
4.26238595230444
4.26238595230444
4.26238595230444
4.26238595230444
4.26238595230444
4.26238595230444
3.95706080034903
3.95706080034903
3.95706080034903
3.95706080034903
3.95706080034903
3.95706080034903
3.95706080034903
3.95706080034903
3.95706080034903
3.95706080034903
3.95706080034903
3.95706080034903
3.95706080034903
3.95706080034903
3.95706080034903
3.95706080034903
3.95706080034903
3.95706080034903
3.95706080034903
3.95706080034903
3.95706080034903
3.95706080034903
3.95706080034903
3.95706080034903
3.95706080034903
3.95706080034903
3.95706080034903
3.95706080034903
3.95706080034903
3.95706080034903
3.95706080034903
3.95706080034903
3.95706080034903
3.95706080034903
3.95706080034903
3.95706080034903
3.95706080034903
3.95706080034903
3.95706080034903
3.95706080034903
3.95706080034903
3.95706080034903
3.95706080034903
3.95706080034903
3.95706080034903
3.95706080034903
3.95706080034903
3.95706080034903
3.95706080034903
3.95706080034903
3.95706080034903
3.95706080034903
3.95706080034903
3.95706080034903
3.95706080034903
3.95706080034903
3.95706080034903
3.95706080034903
3.95706080034903
3.95706080034903
3.95706080034903
3.95706080034903
3.95706080034903
3.95706080034903
3.95706080034903
3.95706080034903
3.95706080034903
3.95706080034903
3.95706080034903
3.95706080034903
3.95706080034903
3.95706080034903
3.95706080034903
3.95706080034903
3.95706080034903
3.95706080034903
3.95706080034903
3.95706080034903
3.95706080034903
3.95706080034903
3.95706080034903
3.95706080034903
3.95706080034903
3.95706080034903
3.95706080034903
3.95706080034903
3.95706080034903
3.95706080034903
3.95706080034903
3.95706080034903
3.95706080034903
3.95706080034903
3.95706080034903
3.95706080034903
3.95706080034903
3.95706080034903
3.95706080034903
3.95706080034903
3.95706080034903
3.95706080034903
3.95706080034903
3.95706080034903
3.95706080034903
3.95706080034903
3.95706080034903
3.95706080034903
3.95706080034903
3.95706080034903
3.95706080034903
3.95706080034903
3.95706080034903
3.95706080034903
3.95706080034903
3.95706080034903
3.95706080034903
3.95706080034903
3.95706080034903
3.95706080034903
3.95706080034903
3.95706080034903
3.95706080034903
3.95706080034903
3.95706080034903
3.95706080034903
3.95706080034903
3.95706080034903
3.95706080034903
3.95706080034903
3.80539263739025
3.80539263739025
3.80539263739025
3.80539263739025
3.80539263739025
3.80539263739025
3.80539263739025
3.80539263739025
3.80539263739025
3.80539263739025
3.80539263739025
3.80539263739025
3.80539263739025
3.80539263739025
3.80539263739025
3.80539263739025
3.80539263739025
3.80539263739025
3.80539263739025
3.80539263739025
3.80539263739025
3.80539263739025
3.80539263739025
3.80539263739025
3.80539263739025
3.80539263739025
3.80539263739025
3.80539263739025
3.80539263739025
3.80539263739025
3.80539263739025
3.80539263739025
3.80539263739025
3.80539263739025
3.80539263739025
3.80539263739025
3.80539263739025
3.80539263739025
3.80539263739025
3.80539263739025
3.80539263739025
3.80539263739025
3.80539263739025
3.80539263739025
3.80539263739025
3.80539263739025
3.80539263739025
3.80539263739025
3.80539263739025
3.80539263739025
3.80539263739025
3.80539263739025
3.80539263739025
3.80539263739025
3.80539263739025
3.80539263739025
3.80539263739025
3.80539263739025
3.80539263739025
3.80539263739025
3.80539263739025
3.80539263739025
3.80539263739025
3.80539263739025
3.80539263739025
3.80539263739025
3.80539263739025
3.80539263739025
3.80539263739025
3.80539263739025
3.80539263739025
3.80539263739025
3.80539263739025
3.80539263739025
3.80539263739025
3.80539263739025
3.80539263739025
3.80539263739025
3.80539263739025
3.80539263739025
3.80539263739025
3.80539263739025
3.80539263739025
3.80539263739025
3.80539263739025
3.80539263739025
3.80539263739025
3.80539263739025
3.80539263739025
3.80539263739025
3.80539263739025
3.80539263739025
3.80539263739025
3.80539263739025
