0.345108678534748
0.17464249196573
0.181383571472171
0.176068168616591
0.165529453572469
0.146628782986153
0.13190905958273
0.166733320005331
0.147648230602334
0.131529464379659
0.136014705087354
0.151327459504215
0.164620776331543
0.162172747402268
0.151327459504215
0.135277492584687
0.125698050899766
0.145602197785611
0.342052627529741
0.332415402771893
0.311448230047949
0.315753068076939
0.334514573673555
0.350998575495685
0.359861084308932
0.357351367704113
0.137477270848676
0.131148770486041
0.142126704035519
0.165529453572469
0.146969384566991
0.402243707222376
0.388072158238646
0.376031913539264
0.367559518989783
0.368781778291716
0.365650105975645
0.361109401705357
0.126491106406735
0.128840987267251
0.131529464379659
0.141067359796659
0.13964240043769
0.133790881602597
0.121655250605965
0.10770329614269
0.101488915650922
0.1
0.221810730128189
0.273861278752584
0.266645832519468
0.265518360947036
0.260959767013998
0.135277492584686
0.153622914957372
0.159059737205869
0.151657508881031
0.148323969741913
0.146628782986151
0.153297097167559
0.158745078663875
0.1670329308849
0.166733320005331
0.156204993518133
0.14560219778561
0.248797106092495
0.246779253585062
0.236431808350738
0.228035085019828
0.226495033058123
0.176351920885484
0.232808934536457
0.236008474424119
0.240416305603427
0.245356882927707
0.2475883680628
0.258650343127552
0.268514431641951
0.265141471671257
0.259422435421457
0.209045449603669
0.255147016443462
0.25495097567964
0.251992063367083
0.248997991959775
0.246981780704569
0.246170672501824
0.206397674405503
0.206397674405503
0.206639783197718
0.196977156035922
0.182482875908947
0.186279360101973
0.185202591774522
0.188148877222268
0.186815416922695
0.200249843945008
0.219317121994614
0.141774468787578
0.135277492584687
0.258069758011279
0.238117617995814
0.225831795812725
0.220454076850486
0.212132034355964
0.162480768092719
0.153948043183407
0.359583091927304
0.317490157327751
0.273130005674953
0.228910462845192
0.184390889145858
0.153622914957372
0.366742416417845
0.164620776331544
0.181934053986603
0.194422220952236
0.216564078277077
0.244744765010408
0.287749891398763
0.347419055320804
0.419642705167146
1.32981201679034
1.33184083133083
1.33326666499992
1.33424135747623
1.33292910539158
1.32921029186506
1.32283785854503
1.31696621065235
1.12583302491977
1.30893086142852
1.3067134345372
1.30295817277455
1.29946142689962
1.29526059154133
0.620241888298429
0.650691939399898
0.677938050267132
0.700999286732876
0.722634070605587
0.749399759807808
0.783134726595623
0.816700679563817
0.847407812095216
0.869770084562582
0.885945822271317
0.898665677546439
0.912414379544733
0.929408413992471
0.948050631559306
0.966798841538404
0.982395032560731
0.995288902781499
1.00801785698469
1.02249694376071
0.674240313241503
0.44034077712608
0.373630833845388
0.345398320783411
0.290688837074973
0.247184141886166
0.204694894904588
0.197737199332852
0.196468827043886
0.1552417469626
0.126885775404496
0.206881608655772
0.34322004603461
0.331813200460741
0.316543835826888
0.304795013082563
0.317804971641414
0.287402157263998
0.37841775856849
0.460325971459356
0.535256947642905
0.608358446970205
0.673424086293325
0.72780491891715
0.448107130048161
0.515460958754394
0.595818764390649
0.682348884369279
0.781024967590665
0.888313007897554
1.00304536288246
1.12986724883944
1.25419296760905
1.3856406460551
1.51291110115565
1.63633737352662
0.627614531380528
0.5060632371552
0.443170396123207
0.454312667664022
0.53084837759948
0.650230728280354
0.799124520960282
0.941594392506667
0.859592926913664
1.01158291800524
1.17579760163048
0.766159252375119
0.600166643524947
0.497192115786243
0.562672195865408
0.406693988153255
0.364142829120662
0.474763098818769
0.655972560401729
1.69676162144245
1.7245579143653
1.75319707962339
1.77327380852479
1.79465874193396
1.81614977355944
1.83847763108502
1.85838639685077
1.87496666637036
1.88379935237275
0.580603134679791
0.519711458407451
0.49849774322458
0.568242905807014
0.695557330491168
0.842377587546107
0.773110600108419
0.939946807005588
1.09311481556148
1.2380226169178
1.13313723793722
1.00836501327644
0.88436417837902
0.752595508889071
0.613432962922599
0.503388517946128
0.42848570571257
0.384317577011512
0.343947670438396
0.291547594742264
0.251197133741608
0.19672315572906
0.183303027798233
0.188414436814167
0.20420577856662
0.215870331449228
0.181107702762748
0.770454411370329
0.774532116829251
0.20174241001832
0.201742410018319
0.802869852466763
0.81400245699875
0.824681756800768
0.831083629967527
0.836480723029527
0.843326745692321
0.846876614389606
0.849705831449921
0.847466813509533
0.854751425854324
0.863712915267568
0.880397637434359
0.592790013411157
0.595734840344259
0.598080262172227
0.599833310178753
0.602494813255683
0.603489850784584
0.610900973972051
0.613025284959764
0.613514466007119
0.611718889687085
0.615142259969188
0.628887907341205
1.60738918747141
1.62609962794412
1.6419805114556
1.65601932355876
1.66811270602439
1.67785577449315
1.68988165266092
1.69947050577525
1.70877148852619
1.71642069435206
1.72304962203646
1.73028899320316
1.73528095707871
0.254165300542777
0.280178514522438
0.408289113251872
0.384447655734822
0.358329457343378
0.330605505096331
0.307571129984594
0.285832118559129
0.217944947177033
0.229782505861521
0.25298221281347
0.280891438103763
0.2151743479135
0.1994993734326
0.188679622641132
0.183847763108502
0.174928556845359
0.164012194668567
0.152643375224737
0.152970585407783
0.17058722109232
0.191049731745428
0.300665927567459
0.285131548587664
0.275499546279118
0.26
0.24576411454889
0.241867732448956
0.242487113059642
0.240624188310319
0.237276210354093
0.208086520466848
0.219544984001002
0.232808934536456
0.24698178070457
0.396232255123178
0.376696164036747
0.367151195013716
0.360277670693036
0.350713558335003
0.333316666249978
0.318119474411736
0.308058436014986
0.305777697028412
0.31827660925679
0.321403173599763
0.314324672910034
0.301330383466387
0.427083130081252
0.639921870231047
0.640312423743285
0.449888875168079
0.444184646290255
0.447101778122162
0.452327315115945
0.314006369362151
0.319843711834389
0.282134719593317
0.293257565972303
0.306104557300278
0.303973683071412
0.379999999999999
0.387556447501521
0.396358423652127
0.400249921923789
0.400874045056548
0.403484820036639
0.40816663263917
0.404103947023534
0.407185461430046
0.412431812546025
0.417372735094183
0.427901857906693
0.442153819388682
0.448553229840115
0.719791636517125
0.710703876449257
0.698713102782537
0.680073525436772
0.666183157997859
0.654675492133317
0.645213143077542
0.633955834423819
0.620564259364009
0.604565960007674
0.589915248150106
0.148323969741913
0.139283882771842
0.140000000000001
0.148323969741914
0.156843871413582
0.162788205960997
0.158745078663876
0.152643375224737
0.14456832294801
0.150996688705415
0.157162336455017
0.133790881602597
0.147309198626563
0.163401346383682
0.17492855684536
0.17916472867169
0.181107702762749
0.176635217326557
0.167032930884901
0.148996644257513
0.140712472794703
0.143527000944074
0.159687194226712
0.165529453572468
0.16583123951777
0.145602197785611
0.169410743460974
0.179164728671689
0.178044938147648
0.167032930884901
0.224276614920058
0.212367605815953
0.204939015319192
0.191049731745429
0.136381816969859
0.1802775637732
0.178605710994918
0.181107702762749
0.150665191733193
0.145945195193264
0.140356688476183
0.137113092008022
0.14142135623731
0.150665191733194
0.15
0.182756668824971
0.178885438199984
0.181107702762749
0.187616630392938
0.196214168703487
0.187616630392938
0.190262975904405
0.183847763108503
0.181934053986603
0.172046505340853
0.167928556237467
0.163707055437449
0.164924225024707
0.168819430161342
0.159373774505093
0.155241746962601
0.268700576850889
0.268328157299975
0.265329983228432
0.259229627936315
0.25119713374161
0.242693221990232
0.235159520326097
0.238537208837532
0.24062418831032
0.236854385646541
0.227156333832011
0.217485631709316
0.216101827849743
0.210475651798492
0.213072757526626
0.212367605815953
0.213307290077015
0.210237960416286
0.212132034355964
0.211423745118659
0.204939015319192
0.187349939951952
0.17606816861659
0.699213844256534
0.367287353444138
0.368646171823334
0.359304884464433
0.354541958024716
0.348998567332302
0.349999999999999
0.35312887166019
0.352987251894455
0.732256785560913
0.742091638546077
0.750466521571749
0.762299153875957
0.776723889165256
0.163095064303001
0.18
0.201246117974981
0.224276614920058
0.242280828791714
0.254165300542776
0.267581763205192
0.294788059459673
0.33060550509633
0.369459064038222
0.411217703899041
0.440113621693307
0.2227105745132
0.251594912508182
0.279105714739056
0.31112698372208
0.34554305086342
0.375632799419859
0.404227658628154
0.42871902220452
0.449221548904324
0.469254728266002
0.493051721424842
0.520576603392814
0.470531614240743
0.513711981561653
0.561871871515206
0.60778285596091
0.639296488336984
0.669402718847183
0.700713921654194
0.729931503635787
0.758287544405155
0.782815431631237
0.683300812234261
0.681395626636978
0.682129020054125
0.681175454637056
0.608933493905533
0.635845893279182
0.667308024828115
0.694910066123668
0.721872564930958
0.746860093993514
0.904267659490265
0.863770802933279
0.821279489577087
0.775241897732573
0.723463889907437
0.666408283261846
0.604152298679729
0.534415568635496
0.463033476111609
0.385746030439719
0.311126983722082
0.815291358963163
0.842080756222348
0.672011904656458
0.294788059459674
0.230867927612305
0.186547581061777
0.167630546142403
0.214709105535839
0.201494416796099
0.244744765010409
0.228691932520585
0.232379000772445
0.240208242989286
0.242899156029823
0.243310501211929
0.235796522451032
0.225831795812725
0.225831795812725
0.800999375780032
0.286356421265527
0.360832371053374
0.529433659677962
0.600832755431992
0.66588287258346
0.734029972140103
0.819267965930562
0.998699153899711
0.906200860736735
0.86913750350563
0.949894731009705
1.03826778819339
0.647070320753471
0.53591044027897
0.421781934179262
0.304138126514911
0.204450483002609
0.219544984001002
0.486004115208915
0.382883794381533
0.363318042491699
0.454312667664022
0.565597029695171
0.506853035898967
0.64730209330729
0.813510909576509
0.983412426197676
0.459782557302906
0.765963445602987
0.600583050043872
0.486929152957594
0.599082632030006
0.452879674968969
1.12858318257894
0.941381962860984
0.75226325179421
0.581807528311554
0.44698993277254
0.152643375224737
0.276586333718786
0.476759897642409
0.673646791723972
0.860639297266863
0.532353266168246
0.441588043316392
0.281424945589405
0.665432190384565
0.580775343829264
0.560892146495206
0.333016516106933
0.440227214061102
0.606217782649106
0.784856674813943
0.960052081920558
1.12449988883948
1.28003906190397
0.510098029794274
0.349571165858971
0.198746069143518
0.12369316876853
0.242074368738204
0.389486841883008
0.509509568114279
0.14456832294801
0.198997487421324
0.14456832294801
0.287402157263999
0.143178210632763
0.162480768092719
0.174928556845359
0.145602197785611
0.169115345252877
0.174068951855292
0.193132079158279
0.127671453348036
0.1113552872566
0.104880884817015
0.117473401244708
0.130766968306221
0.143178210632764
0.134164078649988
0.138564064605511
0.160623784042091
0.187082869338698
0.204939015319193
0.632534584034739
0.639531078212779
0.645368112010502
0.644748012792595
0.645135644651572
0.650230728280354
0.665732679083729
0.67468511173732
0.682129020054124
0.219317121994614
0.234093998214393
0.254558441227158
0.279463772249643
0.295634909981891
0.311126983722082
0.325269119345813
0.338969025133567
0.358747822293043
0.174928556845359
0.158745078663875
0.142828568570857
0.126095202129185
0.120415945787924
0.103923048454133
0.0894427190999925
0.0836660026534083
0.0938083151964697
0.102956301409871
0.120830459735946
0.138202749610853
0.160312195418815
0.1802775637732
0.208086520466849
0.154272486205416
0.174642491965731
0.202977831301845
0.231084400165827
0.262488094968134
0.288790581563874
0.317962261911694
0.339411254969544
0.365239647354994
0.185202591774521
0.309677251344041
0.278388218141501
0.248997991959775
0.223606797749979
0.1994993734326
0.175214154679352
0.156524758424985
0.147309198626562
0.145602197785611
0.123288280059379
0.143178210632763
0.17
0.198494332412792
0.221585198061603
0.23685438564654
0.285482048472404
0.26343879744639
0.236008474424119
0.212132034355964
0.186010752377383
0.139642400437689
0.149666295470957
0.166132477258361
0.185741756210066
0.204450483002608
0.218403296678415
0.22405356502408
0.240416305603426
0.268886593194974
0.490509938737228
0.258069758011278
0.253771550808989
0.264386081328045
0.275680975041804
0.286879765755621
0.295634909981889
0.295465734053883
0.291719042916296
0.163401346383682
0.15
0.128452325786651
0.115758369027902
0.122474487139159
0.139283882771841
0.154596248337403
0.151986841535706
0.150332963783729
0.136381816969858
0.123288280059379
0.127279220613579
0.141067359796659
0.671118469422501
0.654446330878247
0.153297097167559
0.167332005306815
0.188679622641132
0.206397674405503
0.211187120819429
0.209045449603669
0.206881608655772
0.213307290077016
0.65566759871142
0.656353563256877
0.654599113962126
0.655209890035247
0.654904573201318
0.658634952003004
0.669925368977769
0.679190694871477
0.691664658631623
0.708096038684019
0.720971566707038
0.184661853126194
0.161864140562387
0.140712472794703
0.127279220613579
0.125698050899766
0.13964240043769
0.154272486205416
0.186815416922694
0.193907194296653
0.200748598998848
0.202977831301845
0.208566536146142
0.218174242292715
0.2343074902772
0.251793566240283
0.254165300542777
0.241246761636296
0.226715680975093
0.209523268397569
0.197737199332852
0.19157244060668
0.186815416922694
0.184661853126194
0.204450483002609
0.208086520466848
0.200249843945008
0.194679223339318
0.186815416922694
0.173205080756888
0.153948043183407
0.145945195193264
0.122065556157337
0.174355957741627
0.0999999999999998
0.111803398874989
0.128062484748658
0.138564064605511
0.145602197785611
0.140000000000001
0.137477270848676
0.142828568570858
0.155563491861041
0.16248076809272
0.124899959967969
0.127279220613579
0.120830459735946
0.125698050899765
0.138202749610853
0.148660687473185
0.151657508881031
0.151657508881032
0.240831891575847
0.235372045918797
0.238117617995814
0.243515913237719
0.250199920063937
0.248193472919818
0.243310501211929
0.185472369909914
0.189472953214964
0.174355957741627
0.174355957741627
0.17464249196573
0.184932420089069
0.190787840283389
0.198494332412792
0.202731349327133
0.203960780543712
0.163095064303002
0.167032930884902
0.157480157480237
0.143527000944074
0.137840487520903
0.136014705087355
0.131148770486041
0.137840487520903
0.143178210632764
0.141774468787579
0.143527000944074
0.14422205101856
0.254165300542777
0.235796522451032
0.219089023002067
0.206639783197719
0.588727441181401
0.581893461039046
0.572800139664788
0.564977875673021
0.556776436283002
0.187616630392937
0.204939015319192
0.217255609824005
0.207605394920268
0.19570385790781
0.188414436814168
0.185202591774522
0.192093727122986
0.199248588451713
0.191833260932509
0.167928556237467
0.18138357147217
0.196214168703486
0.205669638012031
0.216564078277077
0.244948974278317
0.287923600977759
0.210237960416286
0.180831413200251
0.459456200306406
0.418807831827438
0.379209704517171
0.340881210981186
0.307083050655682
0.269629375254255
0.231300670124407
0.190525588832576
0.153297097167559
0.127671453348037
0.305614135798723
0.326190128606002
0.34928498393146
0.374699879903904
0.404845649599944
0.365650105975645
0.457602447545902
0.464219775537407
0.220227155455452
0.217715410570772
0.263248931621763
0.33778691508109
0.417252920900501
0.198997487421324
0.246373699895098
0.327261363439071
0.277668867538297
0.222710574513201
0.231732604525129
0.286356421265527
0.361386219991853
0.364691650576209
0.437149859887888
0.509607692249636
0.230867927612304
0.14525839046334
0.625539766921337
0.554797260267208
0.485695377783236
0.412674205639267
0.326036807738022
0.231516738055805
0.134536240470737
0.121243556529821
0.418927201313068
0.251793566240283
0.30347981810987
0.367967389859482
0.426028168082816
0.348998567332303
0.267955220139486
0.25219040425837
0.207605394920267
0.193907194296653
0.200000000000001
0.167928556237466
0.216794833886787
0.170880074906351
0.199248588451713
0.218632111090755
0.236220236220355
0.250199920063936
0.264764045897475
0.221359436211787
0.255147016443461
0.355246393366632
0.282134719593318
0.306431068920891
0.381051177665153
0.480208288141719
0.581549653941948
0.681102048154313
0.328481354113137
0.405339363990225
0.66
0.572188780036799
0.262488094968134
0.343365694267788
0.462925479964108
0.604648658313239
0.292574776766556
0.352987251894456
0.408656334834051
0.388072158238645
0.671863081289633
0.568418859644892
0.633640276497636
0.674017803919155
0.674240313241503
0.59304300012731
0.439886348958456
0.327108544675923
0.246576560118759
0.352703841770968
0.510685813392149
0.637416661219332
0.592283715798434
0.42190046219458
0.29949958263744
0.322645316098034
0.420951303596984
0.580947501931113
0.405462698654266
0.276947648482525
0.334514573673555
0.63663176169588
0.350713558335003
0.582494635168428
0.524404424085076
0.557314991723711
0.223606797749978
0.411096095821888
0.601331855134915
0.428368999812077
0.217255609824004
0.26153393661244
0.405092582010581
0.566568618968611
0.212367605815953
0.58025856305616
0.478852795752514
0.141067359796658
0.238327505756259
0.387556447501522
0.593380147965872
0.445869936192159
0.222261107708928
0.208326666559996
0.274226184016041
0.357910603363465
0.441588043316392
0.516236379965611
0.231948270094863
0.298328677803526
0.283901391331567
0.280891438103762
0.276224546338662
0.275680975041803
0.284077454226835
0.315911379978626
0.326343377441614
0.348137903710583
0.378549864614953
0.406693988153254
0.183575597506858
0.19824227601599
0.219544984001001
0.243310501211928
0.258263431402899
0.267207784317748
0.267207784317748
0.269629375254255
0.319374388453427
0.300998338865848
0.242693221990231
0.247790233867277
0.253377189186398
0.265706605111727
0.283019433961697
0.309192496674805
0.339263909073746
0.372021504754764
0.631901891119183
0.623056979737809
0.167630546142402
0.188679622641131
0.205669638012031
0.206397674405503
0.615304802516606
0.218403296678416
0.207605394920267
0.190262975904405
0.154919333848297
0.137113092008021
0.141774468787579
0.166433169770933
0.168522995463528
0.16248076809272
0.159687194226714
0.168522995463528
0.187349939951952
0.187349939951952
0.200748598998848
0.214476105895273
0.14422205101856
0.174068951855293
0.195192212959432
0.205182845286833
0.180000000000001
0.192093727122987
0.198997487421325
0.211187120819429
0.157480157480237
0.15
0.148996644257514
0.157797338380595
0.176918060129542
0.191049731745429
0.202731349327134
0.205182845286833
0.207846096908266
0.616279157525224
0.604648658313239
0.59152345684681
0.575760366819391
0.565862174031804
0.558211429478114
0.553805019840015
0.553353413290277
0.551089829338194
0.23388031127053
0.231948270094865
0.239582971014219
0.225831795812724
0.213072757526625
0.224053565024081
0.209284495364563
0.19824227601599
0.198746069143518
0.200499376557634
0.19824227601599
0.230867927612304
0.173205080756888
0.187082869338697
0.193649167310371
0.151657508881031
0.177200451466694
0.559195851200632
0.564800849857717
0.570263097175329
0.577927331071995
0.582322934461626
0.572450871254468
0.550908340833572
0.527541467564398
0.220680764907139
0.19672315572906
0.181659021245849
0.183847763108502
0.1994993734326
0.214709105535839
0.238746727726267
0.242899156029823
0.254165300542777
0.268328157299975
0.281247222208505
0.29
0.288617393793237
0.279642629082192
0.270185121722126
0.242487113059643
0.23832750575626
0.24
0.2343074902772
0.220227155455452
0.207846096908265
0.217944947177033
0.236220236220354
0.254165300542776
0.267955220139485
0.264196896272458
0.23473389188611
0.221359436211786
0.214242852856285
0.22494443758404
0.233238075793812
0.23685438564654
0.224053565024081
0.20174241001832
0.192353840616714
0.192873015219859
0.160312195418814
0.150665191733194
0.147986485869488
0.133041346956501
0.114455231422596
0.104880884817016
0.107703296142691
0.122065556157337
0.110905365064094
0.212132034355964
0.203224014329016
0.192613602842582
0.188148877222268
0.152643375224738
0.152970585407784
0.151986841535707
0.378021163428717
0.377094152699297
0.386134691526157
0.163707055437449
0.143874945699382
0.14456832294801
0.14212670403552
0.133790881602597
0.149331845230681
0.141774468787578
0.133041346956501
0.128062484748657
0.13152946437966
0.141774468787579
0.15033296378373
0.155563491861041
0.172046505340853
0.172916164657906
0.160623784042091
0.148660687473186
0.159687194226714
0.19183326093251
0.273678643668081
0.270739727413618
0.259229627936315
0.251396101799532
0.252784493195292
0.254754784057141
0.261151297144012
0.200748598998848
0.183030052177232
0.152643375224738
0.133041346956501
0.130384048104054
0.154272486205415
0.157162336455017
0.167630546142402
0.176351920885484
0.177763888346312
0.180831413200251
0.171172427686237
0.165529453572468
0.16583123951777
0.174068951855293
0.274043792120895
0.293087017795057
0.22494443758404
0.212837966537928
0.208566536146143
0.217715410570773
0.224499443206437
0.222934968096081
0.217944947177034
0.202731349327134
0.198494332412793
0.206881608655773
0.202731349327133
0.159373774505092
0.141067359796659
0.143874945699381
0.150665191733194
0.422847490237319
0.419642705167146
0.417013189239861
0.42190046219458
0.416293165929973
0.176351920885484
0.207846096908266
0.198746069143518
0.187082869338697
0.178605710994918
0.173493515728975
0.169410743460974
0.17578395831247
0.188944436276912
0.204694894904588
0.218174242292715
0.230000000000001
0.227815714997891
0.195192212959431
0.188679622641132
0.168226038412607
0.171755640373177
0.188148877222268
0.205182845286832
0.217485631709316
0.217715410570773
0.19570385790781
0.18
0.184390889145858
0.405462698654266
0.39344631145812
0.154919333848296
0.15
0.160312195418814
0.171464281994823
0.17578395831247
0.172626765016321
0.206397674405503
0.23
0.256320112359526
0.283548937575157
0.268514431641951
0.248193472919817
0.219317121994613
0.179722007556115
0.151327459504216
0.155241746962601
0.328937684067971
0.29034462281916
0.253377189186398
0.230217288664427
0.253377189186399
0.291890390386529
0.32218007387174
0.343511280746353
0.364691650576209
0.389871773792358
0.254165300542777
0.331813200460742
0.404969134626332
0.478434948556228
0.526212884676915
0.505272203866391
0.519326486903951
0.280178514522438
0.352278299076171
0.434626276242014
0.278567765543683
0.418330013267038
0.34117444218464
0.278028775489157
0.241039415863879
0.245153013442625
0.284780617317962
0.347994252826106
0.428952211790544
0.519326486903951
0.388329756778952
0.289654967159205
0.303150127824482
0.351710107901379
0.422729227756965
0.502394267483219
0.534041196912748
0.528866712887094
0.52459508194416
0.518555686498567
0.459456200306406
0.391663120551323
0.510098029794274
0.506853035898967
0.43977266854592
0.372692903071685
0.349141805001922
0.277488738510233
0.239791576165637
0.508035431835221
0.535630469633683
0.511175116765282
0.161864140562387
0.159059737205869
0.188944436276912
0.224722050542443
0.264007575648882
0.196468827043885
0.174355957741627
0.218174242292714
0.263248931621764
0.276224546338663
0.288617393793236
0.303150127824483
0.31890437438204
0.345832329315812
0.392428337406972
0.324961536185439
0.298161030317511
0.340147027033899
0.246576560118759
0.34322004603461
0.452990066116245
0.459565011723042
0.47486840282335
0.491934955049954
0.496789693934969
0.521919534027995
0.531319113151409
0.53591044027897
0.53591044027897
0.537866154354408
0.499599839871872
0.469254728266002
0.474973683481517
0.524404424085075
0.249399278266798
0.490611862881444
0.376031913539264
0.314006369362152
0.339411254969543
0.44
0.414487635521254
0.509215082258961
0.357211421989835
0.304302481094059
0.400624512480202
0.41097445176069
0.389486841883009
0.285657137141714
0.320156211871642
0.465403051128804
0.319687347262916
0.447213595499958
0.279642629082191
0.321403173599764
0.460543157586778
0.365376518128902
0.391790760483194
0.264386081328046
0.258263431402899
0.321714158842908
0.295972971738975
0.285657137141714
0.524118307255146
0.534415568635495
0.457383865041171
0.492747399790197
0.531789432012333
0.324807635378234
0.468081189538738
0.260959767013998
0.260384331325831
0.379605057922046
0.292745623366089
0.289309522829789
0.364417343165772
0.483321838943783
0.363868107973205
0.32832910318764
0.37589892258425
0.304302481094059
0.493457191659013
0.435201102939779
0.4891829923454
0.435430821141545
0.379736750920951
0.330302891298275
0.300665927567458
0.299499582637439
0.310644491340181
0.37589892258425
0.325269119345811
0.324191301548946
0.337934904974316
0.33436506994601
0.329696830436691
0.331360830515618
0.326649659421222
0.310483493925201
0.288270706107992
0.270924343682881
0.371887079635741
0.366606055596467
0.365376518128902
0.36469165057621
0.357351367704113
0.345398320783412
0.333016516106935
0.31984371183439
0.315119025131775
0.259807621135332
0.241867732448956
0.23473389188611
0.218403296678415
0.216101827849743
0.221810730128188
0.21
0.184932420089069
0.155884572681199
0.148323969741914
0.17058722109232
0.192613602842583
0.205182845286832
0.264196896272458
0.510979451641648
0.180831413200251
0.185472369909915
0.189736659610103
0.200499376557635
0.522781024904309
0.524118307255146
0.525832673005396
0.548361194834208
0.18788294228056
0.196214168703486
0.186010752377383
0.17
0.178605710994918
0.192613602842582
0.199749843554382
0.19672315572906
0.251793566240284
0.278567765543683
0.314801524773944
0.32310988842807
0.337638860322683
0.36469165057621
0.398246155034798
0.436119249747131
0.473919824442912
0.507247474118897
0.540925133451941
0.501896403653184
0.527730992078351
0.542954878419929
0.548725796732758
0.544426303552648
0.458693797647189
0.446654228682546
0.426966040804184
0.408044115262064
0.345976877840124
0.34554305086342
0.348998567332303
0.352420203734121
0.359722114972098
0.368646171823334
0.376961536499414
0.391024295920342
0.417492514902961
0.449888875168079
0.483114893167246
0.543046959295419
0.535723809439155
0.178605710994918
0.156204993518133
0.150332963783729
0.162788205960997
0.19544820285692
0.228691932520585
0.250199920063936
0.186279360101972
0.208326666559997
0.219772609758359
0.223830292855994
0.161864140562386
0.167928556237467
0.18
0.187349939951952
0.19672315572906
0.19824227601599
0.181934053986603
0.159373774505092
0.159373774505092
0.17464249196573
0.25
0.259422435421457
0.267020598456373
0.264007575648882
0.262106848441623
0.245356882927706
0.221810730128189
0.20174241001832
0.192613602842582
0.196468827043885
0.209761769634031
0.211896201004171
0.204450483002609
0.197989898732233
0.197484176581315
0.200997512422418
0.242899156029822
0.241660919471892
0.238117617995813
0.245560583156173
0.257681974534502
0.223606797749979
0.237276210354094
0.241246761636297
0.258263431402899
0.256515106767613
0.228910462845192
0.241246761636297
0.243310501211929
0.231732604525129
0.23685438564654
0.25298221281347
0.243310501211928
0.25298221281347
0.239791576165636
0.234520787991172
0.229346898823595
0.229782505861521
0.233238075793812
0.232163735324879
0.192613602842582
0.186547581061776
0.193390796058137
0.213307290077015
0.231084400165827
0.220907220343745
0.191049731745428
0.156524758424986
0.137840487520902
0.172336879396141
0.158113883008419
0.17058722109232
0.177763888346312
0.167332005306815
0.165227116418583
0.177200451466694
0.195448202856921
0.146287388383278
0.143874945699381
0.150996688705415
0.159687194226713
0.164924225024707
0.169705627484772
0.17578395831247
0.101488915650922
0.159687194226713
0.19287301521986
0.188944436276912
0.195448202856921
0.19570385790781
0.180554700852679
0.162172747402269
0.154272486205416
0.16
0.172046505340853
0.130384048104053
0.113578166916006
0.14456832294801
0.19313207915828
0.177200451466694
0.171755640373177
0.180000000000001
0.196977156035922
0.15556349186104
0.169410743460974
0.184932420089069
0.183303027798234
0.172046505340853
0.16583123951777
0.172626765016321
0.177482393492989
0.174068951855292
0.16
0.144913767461895
0.12247448713916
0.109544511501034
0.13190905958273
0.16583123951777
0.154596248337403
0.143178210632763
0.163401346383682
0.166733320005331
0.164620776331544
0.171755640373177
0.174068951855292
0.168226038412607
0.186815416922694
0.183847763108502
0.160934769394311
0.135646599662505
0.13114877048604
0.146628782986152
0.162172747402268
0.160934769394311
0.159059737205868
0.172916164657905
0.195192212959431
0.210713075057055
0.219317121994613
0.220680764907139
0.195448202856921
0.178325545001271
0.164924225024707
0.163401346383683
0.171755640373177
0.176351920885485
0.160934769394312
0.154272486205416
0.164924225024707
0.159059737205869
0.143527000944073
0.123288280059379
0.0979795897113271
0.110453610171873
0.14247806848775
0.162480768092719
0.203715487874634
0.180831413200251
0.158113883008419
0.16062378404209
0.153297097167559
0.15329709716756
0.167332005306816
0.181934053986603
0.194679223339319
0.200499376557634
0.171172427686236
0.145258390463339
0.228473193175917
0.228473193175917
0.188944436276912
0.16431676725155
0.17
0.203960780543711
0.23832750575626
0.251396101799531
0.25278449319529
0.202484567313166
0.166132477258362
0.173781471969828
0.214476105895272
0.258650343127552
0.218403296678416
0.250000000000001
0.200249843945008
0.193907194296653
0.208326666559997
0.189736659610103
0.222036033111745
0.231948270094864
0.128062484748657
0.170293863659264
0.128452325786652
0.181383571472171
0.250998007960223
0.19313207915828
0.211187120819429
0.207364413533278
0.153948043183407
0.211896201004171
0.213072757526625
0.213072757526625
0.17464249196573
0.156524758424985
0.126885775404495
0.1802775637732
0.222261107708929
0.238537208837532
0.165529453572469
0.170293863659264
0.197989898732234
0.162172747402269
0.21540659228538
0.258069758011279
0.204939015319192
0.195959179422654
0.220907220343746
0.220907220343746
0.245967477524977
0.228910462845192
0.182482875908947
0.201990098767241
0.162172747402268
0.1330413469565
0.126095202129185
0.131909059582729
0.14456832294801
0.214242852856287
0.219317121994614
0.218632111090755
0.208326666559997
0.191311264697091
0.198494332412793
0.26134268690744
0.25709920264365
0.239582971014219
0.252388589282479
0.261533936612441
0.261725046566049
0.260000000000001
0.260576284415908
0.254361946839539
0.270924343682882
0.283901391331568
0.314801524773945
0.319843711834389
0.319843711834389
0.324037034920393
0.357631094844953
0.413642357598928
0.435430821141545
0.436463056855904
0.435660418215839
0.432897216438267
0.430581002832219
0.430232495285979
0.434741302385683
0.441021541423999
0.439317652729776
0.443057558337514
0.44407206622349
0.433704968844028
0.422492603485552
0.413884041731497
0.409023226724351
0.399124040869502
0.391535439009037
0.387298334620741
0.387298334620741
0.387298334620741
0.383666521865017
0.383666521865017
0.391918358845308
0.395979797464466
0.400874045056548
0.408289113251871
0.416173040933695
0.422255846614348
0.428252262107277
0.421544778167159
0.398748040747536
0.351140997321588
0.323419232575923
0.293087017795056
0.262297540972079
0.261151297144012
0.228254244210267
0.261725046566048
0.254165300542777
0.254165300542777
0.240624188310319
0.250599281722833
0.26
0.251992063367083
0.247184141886165
0.231084400165826
0.247386337537059
0.243310501211929
0.236008474424119
0.254558441227157
0.254754784057139
0.240208242989286
0.247588368062799
0.256124969497314
0.25475478405714
0.25298221281347
0.23473389188611
0.253968501984006
0.248193472919817
0.258069758011279
0.247184141886166
0.243310501211929
0.260959767013998
0.255538646783612
0.257293606605372
0.244948974278317
0.247991935352744
0.257099202643648
0.253968501984005
0.264575131106459
0.269258240356725
0.271477439209964
0.296647939483826
0.322645316098033
0.327719392163478
0.327719392163478
0.325422801905459
0.31288975694324
0.302654919008431
0.302158898594762
0.300166620396073
0.292061637330204
0.287923600977759
0.287923600977759
0.283548937575156
0.280713376952364
0.280891438103762
0.280713376952364
0.280891438103762
0.285306852353742
0.291376045686669
0.294108823397054
0.294108823397054
0.292061637330204
0.30854497241083
0.331360830515618
0.334514573673554
0.334514573673554
0.33689761055846
0.346121365997535
0.343511280746353
0.343074335968168
0.343074335968168
0.343656805548791
0.344093010681705
0.345398320783411
0.346554469023269
0.328785644455472
0.303150127824482
0.289482296522603
0.285306852353742
0.286006992921502
0.265329983228432
0.248193472919817
0.254165300542777
0.258843582110896
0.257487863791675
0.259036676939773
0.260576284415908
0.259229627936314
0.260959767013998
0.251992063367083
0.258263431402899
0.260576284415907
0.272396769437524
0.278747197295327
0.283019433961698
0.285482048472404
0.283019433961698
0.26153393661244
0.249198715887542
0.249799919935936
0.246373699895099
0.253574446662119
0.242899156029823
0.203224014329016
0.253968501984006
0.241039415863879
0.230217288664427
0.209045449603669
0.200249843945008
0.214009345590327
0.250998007960223
0.251594912508183
0.246779253585061
0.204939015319192
0.255538646783613
0.258843582110897
0.237697286480095
0.242693221990232
0.271293199325011
0.239374184071716
0.225610283453569
0.212602916254693
0.21095023109729
0.223159136044215
0.263248931621764
0.255342906696074
0.243104915622864
0.282665880502051
0.272763633939717
0.278208554864871
0.258650343127551
0.261725046566048
0.280713376952364
0.272396769437525
0.267394839142419
0.280178514522438
0.282842712474619
0.284253408071038
0.284253408071038
0.283725219182222
0.283725219182222
0.28053520278211
0.278388218141501
0.284077454226835
0.279642629082191
0.268886593194975
0.264386081328046
0.266645832519468
0.271845544381364
0.251793566240283
0.25278449319529
0.260576284415907
0.281957443597433
0.284077454226835
0.282665880502051
0.278208554864871
0.276224546338662
0.266645832519467
0.296479341607471
0.298496231131985
0.31224989991992
0.342052627529741
0.363593179253957
0.392810386828047
0.405092582010582
0.388973006775534
0.378153408023781
0.359444015112229
0.347994252826106
0.344963766213207
0.348568501158668
0.361109401705356
0.367695526217005
0.372692903071685
0.386522961801754
0.395727178748188
0.39420806688854
0.394208066888541
0.394208066888541
0.397366329726111
0.400749298190278
0.397617907041421
0.400998753115269
0.400998753115269
0.398497176903426
0.398873413503583
0.413279566395437
0.442153819388683
0.462925479964108
0.468081189538738
0.458257569495584
0.447660585711988
0.452990066116246
0.458148447558212
0.457602447545902
0.454092501589709
0.449666543118342
0.443734154646675
0.413642357598929
0.404474968323134
0.41701318923986
0.428368999812077
0.440567815438214
0.435430821141545
0.427083130081252
0.421307488658818
0.424146201208969
0.422255846614348
0.419404339510216
0.420951303596984
0.404845649599943
0.376696164036747
0.362491379207837
0.364691650576209
0.357631094844953
0.352987251894456
0.35227829907617
0.350570962859162
0.353977400408557
0.353553390593273
0.362491379207837
0.3989987468652
0.389871773792358
0.377359245282264
0.368646171823335
0.359861084308931
0.368510515453765
0.360832371053374
0.351852241715183
0.349714169000914
0.350142828000232
0.35
0.354118624192515
0.357351367704113
0.35665109000254
0.356510869399518
0.356089876295297
0.341027858099599
0.33555923471125
0.33555923471125
0.305777697028413
0.271108834234519
0.29137604568667
0.309838667696593
0.309838667696593
0.308058436014987
0.301496268633627
0.301496268633627
0.314006369362152
0.313847096529505
0.315119025131775
0.320624390837628
0.32124756808418
0.333616546352246
0.342928563989645
0.339411254969543
0.347562943939655
0.367967389859482
0.365102725270573
0.353977400408557
0.356931365951495
0.346698716467194
0.335410196624968
0.333166624979153
0.333166624979153
0.333766385365572
0.333166624979153
0.331963853453956
0.330151480384383
0.317175030543074
0.309515750810843
0.310644491340181
0.311448230047948
0.311448230047948
0.312089730686544
0.319217793990247
0.319843711834389
0.324961536185438
0.332264954516723
0.331511689085016
0.322335229225724
0.321091887160047
0.317804971641414
0.30886890422961
0.314642654451045
0.318433666561813
0.317175030543074
0.31288975694324
0.303150127824482
0.306594194335118
0.307896086366813
0.305450486986025
0.30886890422961
0.302489669245084
0.3
0.303315017762062
0.288790581563873
0.281780056072108
0.249599679486974
0.256124969497314
0.283196045170126
0.282134719593318
0.330907842155486
0.348711915483254
0.352136337233181
0.358887168898528
0.369459064038224
0.402492235949963
0.43058100283222
0.437492857084548
0.437492857084548
0.439203825119956
0.437492857084548
0.431972221329104
0.431972221329104
0.428252262107278
0.429185274677499
0.435545634807652
0.437949768809164
0.438178046004133
0.442718872423573
0.443170396123207
0.444859528390705
0.452106182218293
0.480416485978573
0.554616984954483
0.678011799307358
0.797245257119791
0.901054937281851
0.993327740476425
1.07214737792899
1.13749725274394
1.17089709197692
1.17885537705013
1.18033893437436
1.18101651131557
1.17830386573243
1.17217746096741
1.16228223766863
1.14982607380421
1.14913010577567
1.14455231422596
1.13732141455263
1.13732141455263
1.13745329574449
1.13732141455263
1.13732141455263
1.13538539712293
1.13410757867144
1.13714554917126
1.13802460430344
1.13802460430344
1.13802460430344
1.13872735981885
1.13942968190231
1.13903467901552
1.13749725274393
1.13538539712293
1.12924753707945
1.09302333003463
1.03566403818999
0.953362470417207
0.828130424510536
0.629126378401033
0.467867502611584
0.375233260785875
0.323573793747269
0.319217793990248
0.333166624979154
0.348568501158668
0.36810324638612
0.387040049607273
0.331360830515617
0.285482048472404
0.283196045170126
0.284780617317963
0.282134719593318
0.278388218141501
0.276767050061961
0.284604989415154
0.277668867538296
0.277668867538296
0.281957443597433
0.283901391331568
0.283372546306095
0.284604989415154
0.281247222208504
0.279463772249642
0.283725219182222
0.271108834234519
0.275862284482675
0.284429253066558
0.253574446662119
0.257487863791674
0.283901391331567
0.271845544381363
0.284429253066557
0.282842712474619
0.25475478405714
0.259615099714944
0.265894716006167
0.28
0.282134719593318
0.284253408071038
0.278208554864871
0.271293199325011
0.266645832519468
0.267207784317748
0.268886593194975
0.270924343682881
0.266458251889485
0.281069386451104
0.280356915377524
0.278747197295328
0.282665880502052
0.267581763205193
0.268886593194975
0.27459060435492
0.278028775489158
0.284604989415154
0.24
0.284604989415154
0.252586618806302
0.24698178070457
0.242693221990232
0.243104915622865
0.25219040425837
0.25377155080899
0.242899156029822
0.249799919935936
0.284604989415155
0.283372546306096
0.282842712474619
0.27712812921102
0.231300670124407
0.264575131106459
0.273861278752583
0.248596057893121
0.247184141886166
0.22
0.219317121994613
0.240208242989287
0.255734237050889
0.241453929352993
0.206397674405503
0.17464249196573
0.178885438199984
0.227815714997891
0.269629375254255
0.237697286480094
0.228035085019827
0.22494443758404
0.237065391822594
0.261533936612441
0.223383079036887
0.250599281722834
0.208086520466848
0.216101827849744
0.265518360947035
0.236643191323985
0.246373699895099
0.248797106092495
0.24392621835301
0.23173260452513
0.21633307652784
0.203960780543712
0.260959767013998
0.249198715887542
0.247991935352745
0.208086520466849
0.194679223339318
0.262678510731275
0.204450483002609
0.207846096908266
0.215638586528479
0.228035085019828
0.241246761636297
0.278747197295328
0.22293496809608
0.270554985169375
0.247991935352746
0.2533771891864
0.282665880502053
0.24738633753706
0.245356882927706
0.233452350598576
0.245967477524977
0.251793566240283
0.256320112359526
0.242280828791714
0.233023603954621
0.235159520326098
0.254950975679639
0.261725046566048
0.272029410174709
0.268141753555838
0.25475478405714
0.242693221990232
0.240831891575846
0.252586618806301
0.274043792120894
0.245967477524977
0.229128784747792
0.231516738055804
0.252586618806301
0.280178514522438
0.292745623366089
0.293938769133981
0.2849561369755
0.288617393793236
0.299165506033032
0.313528308131818
0.33060550509633
0.331963853453957
0.326649659421221
0.315119025131774
0.332114438108312
0.313049516849971
0.33391615714128
0.319217793990248
0.32969683043669
0.327719392163479
0.30675723300356
0.333466640010661
0.31559467676119
0.330302891298275
0.324807635378234
0.301827765455731
0.328024389337134
0.333766385365573
0.334514573673555
0.336154726279432
0.334065861769802
0.335261092284804
0.334813380855664
0.334813380855664
0.333766385365573
0.333316666249979
0.322335229225724
0.329848450049412
0.329393381840012
0.318276609256791
0.313209195267316
0.312089730686544
0.316543835826888
0.336154726279432
0.322490309931942
0.331511689085015
0.331511689085015
0.33555923471125
0.33555923471125
0.33555923471125
0.329241552663086
0.32310988842807
0.336452076825214
0.327108544675922
0.334514573673555
0.321247568084179
0.319374388453425
0.333616546352245
0.318590646441479
0.289654967159205
0.263248931621764
0.308220700148449
0.333466640010661
0.27495454169735
0.247184141886165
0.290172362570938
0.304138126514911
0.292916370317536
0.304466746952766
0.3
0.312729915422237
0.266082693913001
0.305286750449475
0.307733651068582
0.331813200460741
0.331511689085015
0.286181760425084
0.311769145362398
0.29732137494637
0.303973683071413
0.335857112474933
0.330907842155486
0.326190128606002
0.321558703816271
0.290000000000001
0.269258240356726
0.287749891398763
0.321558703816271
0.323264597504893
0.33391615714128
0.311448230047949
0.323573793747269
0.311126983722081
0.322490309931943
0.326955654485436
0.329545141065682
0.296479341607473
0.273130005674954
0.300998338865848
0.311126983722082
0.293938769133982
0.328481354113138
0.333766385365573
0.330756708170825
0.327719392163479
0.329089653438087
0.334962684488885
0.336303434416005
0.334813380855665
0.334215499341368
0.330454232837166
0.327566787083184
0.33391615714128
0.333466640010661
0.331813200460741
0.322800247831379
0.330151480384383
0.329848450049412
0.322335229225723
0.329089653438086
0.384577690460588
0.417372735094184
0.427083130081252
0.454312667664022
0.484458460551573
0.488773976393998
0.483838816136118
0.481040538832228
0.473497624070069
0.47169905660283
0.469148164229596
0.47549973711875
0.483011387029333
0.477702836499848
0.462385120867876
0.45453272709454
0.452327315115946
0.453321078265725
0.447995535692042
0.427784992724149
0.406201920231798
0.403360880601974
0.405955662603689
0.410365690573664
0.41
0.402243707222375
0.39420806688854
0.381444622455213
0.379868398264451
0.382491829978105
0.37456641600656
0.359304884464433
0.34
0.33060550509633
0.327414110874898
0.328481354113136
0.32893768406797
0.300499584026334
0.327719392163478
0.328024389337134
0.329848450049412
0.326802692767364
0.323264597504892
0.314324672910034
0.331813200460741
0.392428337406971
0.432781700167648
0.435430821141545
0.42743420546325
0.422137418384109
0.421188793773054
0.419404339510215
0.418090899207338
0.410731055558257
0.409633982965281
0.413158565202272
0.419046536795139
0.426614580154031
0.426614580154031
0.422492603485552
0.422492603485552
0.429185274677499
0.467653718043597
0.574804314527997
0.723809367167903
0.775177399051341
0.775370878999206
0.782879301041994
0.792590688817375
0.805605362444914
0.840595027346701
0.844334057112468
0.848115558164099
0.858952850859697
0.877382470761755
0.893644224509956
0.89916628050656
0.900666419935817
0.887749964798648
0.84
0.781728853247723
0.752529069205968
0.743706931526122
0.738850458482635
0.740405294416511
0.750799573787839
0.770778826901726
0.784665533842286
0.782943165242535
0.776015463763448
0.771167945391923
0.764133496190293
0.754652237789036
0.746324326281811
0.738579718107666
0.722149568995232
0.711266476083331
0.711266476083331
0.716868188720911
0.721872564930958
0.721872564930958
0.723187389270582
0.72034713853808
0.714772691140337
0.709224929059886
0.68044103344816
0.655667598711421
0.654599113962126
0.647224845011376
0.524309069156732
0.448776113446337
0.411703777004778
0.366469644036174
0.330605505096331
0.328176781628438
0.284780617317962
0.280535202782111
0.250199920063936
0.22781571499789
0.235372045918796
0.258650343127551
0.271845544381363
0.277488738510232
0.282311884269862
0.296310647800581
0.317017349682947
0.294957624075052
0.258263431402899
0.224276614920058
0.214941852602046
0.246981780704569
0.292574776766556
0.301496268633627
0.263248931621763
0.244948974278317
0.256709953059868
0.320936130717625
0.308706980808663
0.316701752442262
0.329545141065682
0.335261092284804
0.332114438108313
0.326343377441614
0.222710574513201
0.271108834234519
0.312729915422238
0.326190128606001
0.32155870381627
0.296141857899217
0.294788059459674
0.29732137494637
0.293598365118064
0.294788059459673
0.332565782966318
0.316227766016838
0.309192496674806
0.325269119345811
0.307083050655682
0.315911379978626
0.331209903233584
0.325269119345812
0.319687347262916
0.299332590941916
0.270554985169374
0.239165214862028
0.266458251889484
0.270554985169374
0.312409987036266
0.331058907144937
0.317804971641414
0.323419232575925
0.328785644455472
0.312089730686545
0.278926513619628
0.258069758011279
0.253179778023443
0.266645832519468
0.335261092284804
0.332565782966318
0.332866339541865
0.331058907144938
0.321403173599765
0.305286750449476
0.280891438103763
0.24454038521275
0.205182845286832
0.323882694814033
0.305941170815567
0.288963665535998
0.280891438103763
0.293257565972304
0.310966236109325
0.328176781628439
0.326496554346291
0.26229754097208
0.259036676939772
0.245560583156173
0.24698178070457
0.279821371592665
0.316701752442263
0.334813380855664
0.334065861769801
0.223830292855994
0.245356882927706
0.324961536185439
0.32031234756094
0.327261363439072
0.331511689085016
0.333166624979154
0.32310988842807
0.305777697028413
0.312089730686545
0.231948270094864
0.206639783197718
0.184390889145858
0.17832554500127
0.193907194296654
0.198746069143518
0.198242276015991
0.194164878389476
0.188944436276912
0.290516780926679
0.281602556806575
0.283725219182223
0.240416305603426
0.269629375254255
0.29563490998189
0.293598365118064
0.29563490998189
0.234520787991171
0.232379000772445
0.22781571499789
0.231948270094864
0.242693221990232
0.260768096208106
0.263818119165459
0.267020598456374
0.274772633280682
0.279105714739057
0.27367864366808
0.257293606605372
0.276224546338664
0.266645832519468
0.273313007374329
0.230434372436058
0.209045449603669
0.250399680510978
0.231516738055804
0.227596133534821
0.250199920063936
0.277488738510232
0.283901391331568
0.256124969497314
0.21142374511866
0.396610640301039
0.40853396431631
0.393446311458121
0.401995024844836
0.404969134626333
0.408289113251873
0.401995024844836
0.401497197997695
0.404722126896962
0.263818119165458
0.244744765010408
0.242487113059643
0.26
0.263058928759318
0.261725046566048
0.26944387170615
0.25298221281347
0.219772609758359
0.21
0.174642491965729
0.28248893783651
0.318747549010184
0.340440890610984
0.243926218353009
0.266645832519468
0.259036676939773
0.250599281722833
0.26229754097208
0.281247222208505
0.29086079144498
0.293257565972304
0.292745623366089
0.359304884464433
0.373898381916798
0.383927076409049
0.39
0.406448028658031
0.340293990543471
0.32649655434629
0.313687742827162
0.301330383466387
0.298496231131986
0.291890390386529
0.287228132326901
0.293938769133981
0.31288975694324
0.324961536185439
0.243310501211929
0.236431808350738
0.222485954612871
0.203960780543712
0.187082869338698
0.178885438199984
0.188679622641132
0.210713075057055
0.22248595461287
0.226274169979696
0.240416305603427
0.260384331325831
0.287054001888147
0.298663690461362
0.352987251894456
0.359583091927305
0.353694783676549
0.219317121994613
0.221585198061603
0.145602197785611
0.165227116418583
0.189472953214964
0.214009345590327
0.227376340018042
0.229128784747793
0.226715680975093
0.229128784747792
0.236220236220355
0.235796522451032
0.227376340018042
0.210000000000001
0.19672315572906
0.195959179422654
0.202237484161567
0.203469899493758
0.19672315572906
0.203960780543712
0.23173260452513
0.257875939164553
0.279105714739057
0.289136645896019
0.294448637286709
0.30886890422961
0.338526217596215
0.360693775937429
0.372558720203943
0.376828873628336
0.384317577011513
0.398120584747888
0.393192065026751
0.406939798987516
0.388200978875634
0.348425027803687
0.394841740447993
0.363593179253957
0.404227658628155
0.386005181312375
0.371887079635741
0.348998567332303
0.392555728527811
0.353128871660192
0.297657521322744
0.228254244210266
0.168226038412607
0.262106848441623
0.21142374511866
0.221359436211787
0.267020598456374
0.321558703816271
0.237697286480095
0.242487113059643
0.300000000000001
0.206397674405503
0.288444102037119
0.378813938497516
0.351140997321589
0.351140997321589
0.26343879744639
0.220454076850486
0.230434372436059
0.274954541697351
0.335559234711251
0.406324993078201
0.407308237088326
0.241039415863879
0.301164406927512
0.375632799419859
0.374432904536981
0.372290209379726
0.289654967159205
0.234520787991171
0.219317121994613
0.243926218353009
0.363593179253957
0.350713558335004
0.360416425818802
0.288444102037119
0.236220236220354
0.22113344387496
0.246576560118759
0.324191301548947
0.266645832519468
0.246779253585062
0.262106848441624
0.281247222208505
0.290688837074973
0.297321374946371
0.303150127824483
0.311126983722082
0.31953090617341
0.32280024783138
0.312569992161756
0.260192236625154
0.395094925302768
0.362904946232481
0.351283361405006
0.36428011200174
0.387943294825417
0.343365694267788
0.31543620591175
0.307083050655682
0.374432904536982
0.335559234711251
0.398120584747888
0.407798970082074
0.384707681233427
0.368239052790439
0.378945906429928
0.403856410126173
0.398748040747538
0.392300904918661
0.456398948289762
0.458039299623952
0.464004310324808
0.482078831727759
0.5
0.498898787330657
0.507247474118896
0.522494019104525
0.523641098463442
0.529622507074615
0.536376733276156
0.53777318638995
0.542217668469038
0.543783044972901
0.54479353887505
0.553534100123922
0.557045779088218
0.556506963119061
0.552177507691141
0.552177507691141
0.56302753041037
0.591100668245266
0.632929695937866
0.675647837264355
0.714702735408225
0.757165767847438
0.777688883808943
0.799249648107524
0.827345151674922
0.834865258589672
0.851058164874764
0.863655023721856
0.865505632563994
0.858836422143356
0.853287759199674
0.840535543567314
0.831444526111033
0.823225364040735
0.819573059586514
0.812711510931154
0.774532116829251
0.742967024840269
0.716658914686757
0.722495674727538
0.729383301152419
0.748865809073962
0.781984654580894
0.826922003577121
0.862902080192185
0.895600357302296
0.92633687176966
0.94957885401898
0.928654941299512
0.920760555193369
0.928062497895481
0.953886785735079
0.986610358753647
0.992673158698269
1.01029698603925
1.04057676314629
1.07536040470161
1.10408333018844
1.11910678668302
1.13578166916006
1.15663304466023
1.17111058401844
1.17635028796698
1.17524465538032
1.17315813085875
1.17383985279083
1.17179349716578
1.12516665432282
1.09018347079746
1.07424392015966
1.06371988794043
1.05527247666183
1.04885652021618
1.03580886267689
1.01946064171208
1.01291658096805
1.01138518873869
0.982089608946149
0.960676844729798
0.931182044500429
0.898665677546439
0.860290648560125
0.797307970611106
0.74766302570075
0.744513263817375
0.76078906406441
0.785620773656095
0.809011742807236
0.734574706888279
0.670596749171959
0.631268564083465
0.619758017293847
0.622575296650935
0.56471231613982
0.521536192416212
0.508428952755446
0.496084670192498
0.482493523272593
0.473603209448585
0.473603209448585
0.473075046900595
0.471805044483418
0.470531614240744
0.470637865030004
0.44328320518603
0.417612260356422
0.405955662603689
0.400624512480202
0.405215991787096
0.404845649599943
0.403980197534483
0.40137264480779
0.3989987468652
0.404598566482877
0.381837661840735
0.391535439009037
0.381182371050918
0.398246155034797
0.407921561087422
0.394715087119811
0.39585350825779
0.406078810084939
0.402119385257662
0.386522961801753
0.371887079635741
0.403732584763728
0.407308237088327
0.268700576850888
0.282311884269862
0.324037034920393
0.359861084308932
0.387169213652119
0.399624824053762
0.401248052954778
0.399124040869503
0.399124040869503
0.262106848441624
0.271477439209965
0.291204395571221
0.312089730686545
0.321247568084181
0.31543620591175
0.307896086366813
0.301662062579967
0.303809150619267
0.316227766016838
0.326496554346291
0.334962684488885
0.343511280746354
0.342344855372474
0.402243707222376
0.355949434611154
0.337490740613724
0.331963853453957
0.336154726279433
0.330907842155486
0.322955105239103
0.308220700148449
0.309515750810843
0.331662479035539
0.354964786985976
0.379473319220205
0.395474398665703
0.206155281280883
0.229782505861521
0.281957443597434
0.326955654485436
0.347850542618521
0.352562051276083
0.390768473651598
0.386652298583624
0.379341534767813
0.37322915213043
0.316543835826888
0.313368792319848
0.33466401061363
0.363455636907724
0.38026306683663
0.405339363990225
0.349141805001922
0.337045990927055
0.40767634221279
0.365786823163438
0.382753184180093
0.3884584919911
0.377491721763537
0.373898381916798
0.370675059857012
0.375499667110371
0.37815340802378
0.380657326213485
0.380525951808809
0.383666521865017
0.388200978875633
0.390896405713841
0.39446165846632
0.396358423652128
0.398748040747537
0.40583247775406
0.411703777004777
0.416173040933696
0.417133072292284
0.416052881254294
0.414246303544159
0.395474398665703
0.369323706252387
0.360416425818801
0.37188707963574
0.37509998667022
0.347275107083706
0.354964786985976
0.376696164036746
0.376696164036746
0.375632799419858
0.337045990927053
0.333016516106933
0.333016516106933
0.341613817050773
0.332866339541863
0.330302891298274
0.335261092284803
0.34785054261852
0.354682957019363
0.355105618091293
0.350998575495684
0.347275107083706
0.343511280746352
0.331662479035539
0.32969683043669
0.324499614791758
0.317804971641413
0.32046840717924
0.285482048472403
0.375366487582468
0.367559518989781
0.369594372251526
0.294618397253124
0.310161248385416
0.320156211871642
0.377359245282263
0.256515106767612
0.252586618806301
0.261916017074175
0.372290209379725
0.35199431813596
0.322955105239102
0.331813200460741
0.33511192160232
0.348711915483253
0.350428309358704
0.33689761055846
0.338526217596215
0.354682957019363
0.349284983931458
0.344963766213206
0.336303434416004
0.323882694814032
0.313049516849969
0.306757233003558
0.305286750449474
0.314801524773943
0.331511689085015
0.338230690505754
0.338673884437521
0.298663690461361
0.263628526529281
0.262488094968133
0.271661554144122
0.267955220139485
0.25278449319529
0.255342906696074
0.290516780926679
0.328633534503099
0.345543050863419
0.330907842155486
0.305614135798723
0.30199337741083
0.311929479209645
0.319687347262916
0.309192496674806
0.346265793863616
0.327566787083185
0.33436506994601
0.354541958024717
0.370405183549043
0.333466640010662
0.333616546352246
0.32280024783138
0.311608729017658
0.307245829914745
0.189208879284244
0.377094152699296
0.377094152699296
0.375099986670221
0.375499667110372
0.377624151769984
0.368917334913934
0.371348892552543
0.377359245282264
0.362215405525497
0.372692903071685
0.351994318135961
0.335559234711251
0.33689761055846
0.350713558335004
0.363180395946698
0.373898381916798
0.322955105239103
0.372424488990722
0.359583091927304
0.371887079635741
0.360138862107382
0.356230262611138
0.367559518989783
0.369594372251526
0.372155881318568
0.376031913539263
0.376031913539263
0.37815340802378
0.381444622455212
0.392173431022551
0.410121933088198
0.420713679359253
0.395094925302769
0.374299345444259
0.368917334913935
0.372290209379726
0.374299345444259
0.410852771683483
0.454422710700071
0.497895571380184
0.511077293567226
0.521919534027996
0.55299186250794
0.584208866759142
0.601248700622297
0.610819122163018
0.617980582219215
0.641716448285378
0.661740130262628
0.691230786351419
0.730616178304313
0.742293742395826
0.733893725276351
0.692459385090563
0.658559033041078
0.633087671653777
0.614328902136307
0.597578446733147
0.551815186452855
0.491731634125769
0.423674403286297
0.371483512420134
0.354541958024717
0.352562051276084
0.364965751817894
0.370944739819828
0.367151195013716
0.352703841770968
0.352420203734122
0.353694783676548
0.35171010790138
0.344383507154451
0.33689761055846
0.339558536926993
0.346698716467194
0.349714169000914
0.34
0.322335229225724
0.306920185064456
0.354541958024717
0.37841775856849
0.445645599103144
0.517687164221792
0.570613704707484
0.621530369330414
0.677347768875044
0.745318723768564
0.836361166004257
0.89397986554508
0.89397986554508
0.899944442729661
0.9171150418568
0.942231394085338
0.98701570402907
1.05952819688765
1.14656007256489
1.22588743365776
1.29313572373514
1.34041038491948
1.37342637225299
1.39699677880803
1.43206145119544
1.45910931735768
1.48276768241016
1.48808601901906
1.48603499285851
1.48273396130257
1.48919441309723
1.49936653290648
1.50462619942629
1.50326311735504
1.50834346221277
1.52207095761006
1.53766056072203
1.55009677117269
1.55627761019684
1.55797946071185
1.56364957711119
1.5694903631434
1.57143246752764
1.5675458525989
1.55618122337985
1.54191439451093
1.53987012439361
1.54738489071078
1.56022434284304
1.52200525623271
1.45876660230484
1.39427400463467
1.32721512950991
1.25861034478507
1.1798728745081
1.10661646472479
1.04024035684067
0.95566730612698
0.850470458040724
0.756703376495704
0.667457863838609
0.57393379409127
0.490917508345343
0.439317652729776
0.422610932182309
0.428835632847831
0.428835632847831
0.417851648315524
0.423083916026124
0.424028300942284
0.382753184180093
0.377226722277201
0.371214223865412
0.357071421427143
0.35
0.347706773014274
0.375765884561119
0.370405183549043
0.361662826400503
0.347850542618522
0.335261092284805
0.331209903233584
0.373363094051889
0.367287353444138
0.355668384875574
0.348998567332303
0.342928563989644
0.342198772645373
0.345253530032641
0.347275107083706
0.349857113690717
0.350998575495684
0.349428104193122
0.238537208837531
0.23832750575626
0.243310501211929
0.242693221990232
0.232163735324878
0.22
0.21377558326432
0.217715410570772
0.215638586528478
0.206155281280883
0.20591260281974
0.179164728671689
0.161245154965971
0.16
0.171172427686237
0.157480157480236
0.133041346956501
0.133416640641264
0.155563491861041
0.17606816861659
0.179164728671689
0.163095064303
0.143527000944073
0.157480157480236
0.186010752377383
0.211660104885167
0.224722050542442
0.227156333832011
0.24454038521275
0.268514431641951
0.290516780926679
0.308058436014987
0.322024843762092
0.34
0.356230262611137
0.365102725270574
0.359304884464434
0.374432904536981
0.354682957019363
0.368646171823335
0.389486841883009
0.405955662603689
0.389486841883009
0.368239052790439
0.367831483154991
0.362353418639869
0.358608421540822
0.35213633723318
0.360693775937429
0.361109401705356
0.353270434653114
0.336154726279432
0.330454232837166
0.335111921602321
0.361801050302511
0.376164857476081
0.355387112878338
0.342490875790875
0.336005952328229
0.327719392163479
0.31543620591175
0.300665927567459
0.294788059459674
0.284253408071038
0.328481354113137
0.353128871660192
0.367967389859482
0.366333181680284
0.349141805001922
0.348998567332303
0.366060104354462
0.333316666249979
0.366196668472011
0.360138862107382
0.369052841744919
0.384577690460588
0.388200978875634
0.39496835316263
0.390384425918863
0.397617907041421
0.419642705167146
0.436004587131833
0.455192267069642
0.47
0.477598157450382
0.485180378828328
0.49173163412577
0.504281667324919
0.505272203866392
0.501398045468867
0.498698305591668
0.507444578254611
0.528393792544916
0.555967624956706
0.574282160614449
0.571314274283428
0.56471231613982
0.566921511322334
0.582923665671587
0.608522801544856
0.616360284249399
0.616360284249399
0.594138031100518
0.573585215988
0.559464029227975
0.568770604022395
0.594474557908074
0.619193023216509
0.634507683168612
0.617170964968379
0.597159945073345
0.582666285278289
0.57157676649773
0.564180822077462
0.549818151755651
0.532541078227774
0.527730992078351
0.523450093132096
0.526022813193497
0.523641098463442
0.517590571784301
0.512932744129286
0.510294032886923
0.511859355682789
0.513030213535226
0.51254268114958
0.509411425078001
0.505470078244004
0.500699510684802
0.523641098463442
0.521056618804521
0.521919534027995
0.488159809898357
0.507641605859882
0.524880938880428
0.521536192416212
0.522685373814879
0.519711458407451
0.510587896448789
0.496890329952193
0.488773976393997
0.498998997994986
0.52
0.499599839871872
0.485489443757533
0.522876658496054
0.496890329952193
0.461627555503351
0.366469644036173
0.348711915483253
0.333016516106934
0.329999999999999
0.333016516106934
0.334962684488884
0.382491829978104
0.383405790253615
0.38026306683663
0.382230297072327
0.380525951808808
0.388587184554508
0.395474398665703
0.410609303352956
0.423910367884532
0.426966040804183
0.424381903478458
0.421900462194579
0.420594816896261
0.424381903478459
0.435545634807651
0.452990066116244
0.468294778958723
0.470744091837592
0.464542785973477
0.45563142999578
0.443395985547906
0.431393092202459
0.422492603485552
0.415451561556819
0.412189276910498
0.411096095821889
0.416893271713516
0.430929228528304
0.444297197830461
0.447548880012004
0.44407206622349
0.433935479074942
0.420356991139674
0.401995024844836
0.223606797749979
0.211187120819429
0.34117444218464
0.342052627529742
0.330907842155486
0.272396769437524
0.283019433961697
0.293598365118063
0.29393876913398
0.280178514522437
0.25377155080899
0.242693221990231
0.463249392876018
0.459565011723042
0.257875939164552
0.277308492477241
0.281247222208504
0.263248931621763
0.237276210354093
0.226053091109146
0.238537208837531
0.434396132579469
0.438063922276189
0.448330235429197
0.459565011723041
0.47148700936505
0.477074417675061
0.477702836499847
0.472122865364514
0.460868744872115
0.447660585711987
0.453651848888549
0.481767578817835
0.298328677803525
0.315277655408688
0.342928563989644
0.364691650576209
0.386005181312375
0.405092582010581
0.425910788780936
0.453872228716408
0.488466989672792
0.475394572960189
0.463465209050259
0.4482186966203
0.439886348958456
0.455082410119311
0.483528696149464
0.494165964024234
0.486004115208916
0.524404424085076
0.526022813193497
0.511957029446809
0.491222963632606
0.470000000000001
0.462060602085917
0.523832034148352
0.502195181179589
0.509313263129874
0.484148737476409
0.52239831546436
0.483632091573751
0.515266921119531
0.514101157361079
0.517107338953916
0.530848377599481
0.528961246217528
0.526972485050217
0.52687759489278
0.5339475629685
0.51478150704935
0.515460958754395
0.517687164221792
0.509901951359279
0.481456124688429
0.453762052181537
0.433243580448689
0.521536192416213
0.43897608135296
0.462709412050372
0.489285192909003
0.519807656734682
0.494267134250296
0.468294778958724
0.441474801092883
0.42284749023732
0.41821047332653
0.41146081222882
0.440000000000001
0.475289385532646
0.497192115786243
0.495176736125598
0.525452186216786
0.450777106783386
0.413642357598929
0.406448028658032
0.410365690573664
0.41146081222882
0.392683078321437
0.374432904536981
0.380263066836631
0.391535439009038
0.400499687890016
0.372692903071685
0.323573793747269
0.30364452901378
0.399749921826134
0.405832477754061
0.424499705535823
0.44328320518603
0.438748219369606
0.440113621693308
0.454092501589709
0.467867502611583
0.472016948848238
0.468401537145215
0.463465209050259
0.488876262463212
0.493254498205541
0.513225096814254
0.522494019104525
0.501896403653185
0.508723893679076
0.485180378828328
0.487442304278158
0.508232230382923
0.526497863243528
0.499599839871872
0.500499750249688
0.499799959983992
0.496487663492257
0.500899191454728
0.535910440278971
0.578619045659578
0.616116872029975
0.651613382305797
0.649692234831232
0.645677938294318
0.647379332385581
0.653528882299781
0.662721661031236
0.667532770731146
0.666258208204597
0.669253315270086
0.671341939699882
0.674017803919155
0.674017803919155
0.667682559304944
0.656810474946921
0.647688196588451
0.650691939399898
0.6568865959966
0.65299310869258
0.615142259969188
0.575239080730786
0.555337735076592
0.541387107345566
0.539629502529281
0.541571786562039
0.533385414123783
0.522781024904309
0.509705797494986
0.481975103091435
0.526687763290547
0.512835256198323
0.511272921246568
0.45420259796703
0.383405790253616
0.361801050302511
0.406201920231798
0.491019347887636
0.481144468948776
0.483425278610872
0.466690475583121
0.40583247775406
0.409023226724351
0.456727489866769
0.464327470649755
0.383796821247909
0.336749164809654
0.312729915422237
0.308220700148448
0.317017349682947
0.33391615714128
0.357770876399966
0.377094152699296
0.357770876399966
0.522589705218156
0.513906606301183
0.297657521322745
0.29274562336609
0.294618397253125
0.302489669245084
0.316385840391128
0.317017349682947
0.31984371183439
0.31543620591175
0.311448230047949
0.311769145362398
0.319687347262916
0.381837661840736
0.427551166528639
0.429767378938886
0.430697109347161
0.429418211071678
0.440000000000001
0.461410879802374
0.447213595499958
0.465403051128804
0.487647413609465
0.517010638188423
0.405955662603689
0.490509938737229
0.463033476111609
0.464542785973477
0.435889894354068
0.4121892769105
0.381968585095687
0.279284800875379
0.297993288515027
0.321714158842909
0.343220046034611
0.366196668472012
0.37563279941986
0.373764631820616
0.446878059430087
0.444634681508315
0.467974358271904
0.498798556533597
0.481767578817836
0.507543101617981
0.282134719593318
0.248997991959775
0.277668867538297
0.279463772249643
0.274408454680245
0.377359245282265
0.364554522671164
0.287402157263999
0.311929479209645
0.331360830515618
0.324191301548947
0.309192496674807
0.317962261911693
0.474657771452232
0.463896540189728
0.459456200306406
0.47021271782035
0.496588360717405
0.514295634824951
0.508822169328342
0.488978527135906
0.45902069670114
0.432666153055678
0.24738633753706
0.243721152139079
0.253771550808991
0.24
0.201990098767242
0.200499376557635
0.208326666559997
0.215638586528478
0.211896201004171
0.208326666559997
0.208566536146143
0.240831891575846
0.20174241001832
0.169115345252878
0.176351920885484
0.193907194296653
0.213541565040627
0.214941852602047
0.209761769634031
0.192353840616714
0.188148877222269
0.195192212959432
0.20445048300261
0.20904544960367
0.21142374511866
0.204939015319193
0.200997512422418
0.208566536146143
0.209523268397571
0.20952326839757
0.20712315177208
0.2
0.197484176581315
0.202977831301845
0.171172427686237
0.176351920885484
0.207846096908266
0.184661853126194
0.202977831301844
0.163401346383682
0.14422205101856
0.190262975904405
0.192093727122986
0.191833260932509
0.194935886896179
0.161864140562387
0.201990098767242
0.21142374511866
0.204450483002609
0.180554700852678
0.22
0.196468827043885
0.213307290077016
0.214941852602047
0.201246117974981
0.202731349327133
0.207605394920267
0.206155281280884
0.211187120819429
0.214941852602047
0.172916164657906
0.165831239517771
0.203960780543712
0.208806130178211
0.218174242292715
0.206155281280883
0.219089023002067
0.2
0.167032930884901
0.162172747402269
0.169410743460975
0.172046505340853
0.172046505340853
0.181383571472171
0.184661853126194
0.181383571472171
0.181383571472171
0.187616630392937
0.226274169979695
0.212602916254693
0.215638586528479
0.188944436276912
0.179443584449264
0.210950231097291
0.21587033144923
0.21977260975836
0.203469899493759
0.200499376557635
0.200997512422418
0.202237484161567
0.218860686282393
0.206639783197718
0.197737199332852
0.217025344142108
0.205426385841742
0.201494416796099
0.197989898732233
0.206155281280883
0.200499376557634
0.217485631709316
0.195959179422654
0.183575597506858
0.184932420089069
0.195703857907809
0.219317121994613
0.212837966537927
0.203960780543712
0.20591260281974
0.210475651798492
0.209284495364563
0.21095023109729
0.22
0.214476105895273
0.196214168703487
0.213307290077017
0.18
0.196723155729061
0.19364916731037
0.183847763108502
0.17233687939614
0.183847763108502
0.205669638012031
0.214009345590327
0.214476105895272
0.216794833886788
0.205182845286832
0.217255609824004
0.21095023109729
0.21377558326432
0.213072757526626
0.214242852856286
0.213072757526626
0.187082869338697
0.166433169770932
0.195959179422654
0.213775583264319
0.21377558326432
0.195703857907809
0.18138357147217
0.202731349327133
0.202484567313166
0.201494416796098
0.202237484161566
0.17
0.162788205960997
0.175499287747843
0.192093727122986
0.207605394920268
0.213072757526625
0.21095023109729
0.208326666559997
0.188944436276913
0.211187120819429
0.194679223339318
0.193390796058137
0.199248588451713
0.210237960416287
0.21540659228538
0.216101827849743
0.214242852856286
0.204450483002609
0.214009345590327
0.193907194296653
0.191049731745428
0.213775583264319
0.208566536146142
0.213307290077015
0.212602916254692
0.217025344142107
0.218632111090754
0.200249843945007
0.188148877222267
0.193907194296653
0.214009345590327
0.183575597506858
0.173205080756888
0.19131126469709
0.219089023002066
0.203715487874633
0.207123151772079
0.213541565040625
0.217715410570772
0.217715410570772
0.217715410570772
0.214009345590327
0.214709105535838
0.214709105535838
0.214941852602046
0.211187120819428
0.216794833886787
0.213307290077015
0.213307290077015
0.208566536146142
0.225166604983954
0.251396101799531
0.273313007374329
0.304466746952767
0.329696830436691
0.337786915081091
0.338969025133566
0.338526217596215
0.338526217596215
0.331209903233584
0.327108544675923
0.322955105239103
0.322955105239103
0.317962261911693
0.307896086366813
0.302654919008431
0.305941170815567
0.31890437438204
0.331209903233584
0.336005952328229
0.338378486313773
0.340147027033899
0.341906419945576
0.343220046034611
0.347994252826106
0.351425667816112
0.356089876295297
0.354823899984204
0.354823899984204
0.350998575495685
0.347131099154196
0.344818792991334
0.34117444218464
0.338821486921949
0.335857112474934
0.33391615714128
0.341467421579278
0.346265793863616
0.356510869399518
0.367695526217005
0.380263066836631
0.386134691526157
0.384187454245971
0.346698716467194
0.318276609256791
0.248997991959775
0.220227155455453
0.204694894904587
0.213307290077016
0.20712315177208
0.207846096908266
0.1994993734326
0.211187120819429
0.230217288664427
0.242074368738204
0.259036676939773
0.309192496674806
0.362767142944341
0.413521462562707
0.417731971484109
0.417851648315524
0.424852915724961
0.424499705535823
0.422018956920184
0.419523539268061
0.417731971484109
0.417731971484109
0.417252920900501
0.417252920900501
0.417372735094184
0.41821047332653
0.43139309220246
0.470956473572665
0.541387107345567
0.662872536767062
0.678159273327439
0.671118469422501
0.66783231428256
0.671118469422501
0.677421582177598
0.677421582177598
0.67483331275212
0.673721010508059
0.671267457873536
0.670373030483775
0.661740130262628
0.650461374717977
0.651766829472013
0.651766829472013
0.635845893279181
0.646451854355759
0.676091709755414
0.71386273190299
0.70950687100267
0.68622153857191
0.68622153857191
0.69
0.677716754994297
0.680294054067797
0.687240860252066
0.699428338001828
0.714982517268779
0.743168890629848
0.76909037180295
0.803679040413522
0.81706792863262
0.824681756800767
0.829517932295619
0.838331676605387
0.822921624457639
0.637181292882959
0.480104155366312
0.349284983931459
0.271477439209964
0.263058928759318
0.260192236625153
0.259229627936314
0.262106848441623
0.268141753555838
0.279105714739057
0.285482048472403
0.288270706107991
0.282488937836511
0.239582971014219
0.220227155455452
0.214709105535839
0.212602916254693
0.201494416796099
0.211187120819429
0.216794833886788
0.213072757526625
0.211896201004171
0.205426385841741
0.21095023109729
0.209045449603669
0.213541565040627
0.202731349327133
0.201494416796099
0.199749843554382
0.211187120819429
0.21142374511866
0.219317121994612
0.199999999999999
0.215870331449228
0.199999999999999
0.194164878389476
0.197989898732233
0.204450483002609
0.212367605815953
0.215870331449229
0.216101827849743
0.219317121994613
0.236643191323984
0.266082693913002
0.287228132326902
0.309030742807249
0.324961536185438
0.333466640010661
0.341613817050774
0.34322004603461
0.350998575495685
0.368917334913934
0.39344631145812
0.413763217311544
0.425205832509386
0.434511219648008
0.445869936192159
0.45596052460712
0.464327470649755
0.472016948848238
0.472969343615418
0.472969343615418
0.47
0.461844129550219
0.459673797382448
0.458802789878178
0.457055795281057
0.456618002273235
0.461410879802373
0.467011777153425
0.470956473572665
0.470956473572665
0.465832587954085
0.459347363114234
0.457930125674212
0.458148447558212
0.466797600679352
0.476340214552582
0.483011387029333
0.486415460280612
0.483942145302514
0.475184174820669
0.461410879802373
0.449777722880981
0.442492937796752
0.431508980207828
0.426848919408261
0.421307488658818
0.424264068711929
0.440908153700972
0.437378554572581
0.418688428309167
0.394208066888541
0.378549864614954
0.359583091927304
0.340293990543471
0.315911379978627
0.298328677803527
0.295465734053884
0.296310647800582
0.315753068076939
0.329848450049413
0.342490875790874
0.357770876399967
0.388200978875633
0.386522961801754
0.406693988153255
0.432203655699486
0.437492857084547
0.424735211631906
0.401372644807789
0.383927076409049
0.377756535350482
0.392173431022551
0.414969878424929
0.43324358044869
0.424028300942284
0.399374510954317
0.369052841744919
0.36
0.373095162123553
0.393700393700591
0.418330013267038
0.429534631898291
0.449777722880981
0.47318072657284
0.488978527135906
0.492239778969559
0.487954915950234
0.478330429724056
0.469254728266002
0.457055795281058
0.456618002273235
0.422018956920184
0.433243580448689
0.423910367884533
0.395347948015417
0.378153408023782
0.390384425918864
0.409756024970958
0.274043792120895
0.284429253066559
0.301827765455732
0.311929479209645
0.321403173599765
0.330151480384384
0.33331666624998
0.335410196624969
0.347131099154197
0.362767142944342
0.372155881318569
0.383014360044112
0.39623225512318
0.411582312545135
0.608522801544855
0.602079728939614
0.594642749892739
0.588217646794109
0.584294446319661
0.587622327690158
0.590846849868897
0.589915248150104
0.639609255717895
0.408044115262063
0.401746188532013
0.39522145690739
0.385227205685164
0.374566416006561
0.373764631820615
0.384187454245971
0.398120584747888
0.408166632639171
0.39496835316263
0.363868107973205
0.334215499341368
0.328937684067971
0.330756708170825
0.318433666561813
0.301330383466387
0.308382878902186
0.38392707640905
0.372155881318568
0.374966665185054
0.370809924354784
0.301827765455732
0.314801524773944
0.328176781628439
0.337490740613724
0.34423828956117
0.357071421427143
0.373095162123553
0.383927076409049
0.380525951808809
0.368646171823335
0.365513337649941
0.377624151769984
0.385875627631495
0.378153408023781
0.364965751817893
0.265518360947035
0.242693221990232
0.213072757526625
0.200748598998848
0.234733891886111
0.289654967159205
0.33600595232823
0.353694783676549
0.346842903920493
0.321869538788622
0.300166620396073
0.342344855372474
0.345687720348873
0.343947670438397
0.336897610558461
0.331209903233584
0.324345494804537
0.304630924234557
0.28
0.268514431641951
0.263058928759318
0.265894716006166
0.276947648482525
0.298496231131986
0.329696830436691
0.358747822293042
0.373630833845388
0.329696830436691
0.333766385365573
0.34
0.341174442184639
0.332415402771893
0.312569992161756
0.297825452236709
0.294108823397055
0.285482048472404
0.289654967159205
0.283725219182222
0.277668867538296
0.285306852353742
0.305614135798722
0.332114438108312
0.355527776692623
0.387556447501522
0.426614580154031
0.458257569495584
0.478643917750973
0.508527285403644
0.546808924579692
0.595818764390649
0.465617869072912
0.49749371855331
0.528961246217527
0.562494444417009
0.596322060635023
0.632929695937867
0.657114906237867
0.672235077930332
0.674610999020917
0.671267457873536
0.666033032213868
0.662646210281173
0.662646210281173
0.662646210281173
0.663626400921482
0.66783231428256
0.676756972627545
0.68381283989115
0.686658576004116
0.687313611097583
0.690217357069496
0.69274815048472
0.693036795559947
0.697352134864446
0.698784659247754
0.695557330491168
0.69
0.682715167547931
0.673869423553258
0.670298440994755
0.669029147347109
0.671416413263781
0.671416413263781
0.667382948538543
0.646606526413088
0.635609943282828
0.617980582219215
0.619193023216509
0.625539766921337
0.633876959669619
0.613025284959764
0.597494769851586
0.623858958419289
0.57157676649773
0.603489850784585
0.509607692249636
0.407553677446297
0.395094925302769
0.355246393366633
0.348711915483255
0.360970912955601
0.25278449319529
0.320780298646909
0.372961123979431
0.432550575077644
0.46989360497883
0.470637865030004
0.470319040652194
0.491934955049954
0.513809303146605
0.52239831546436
0.520288381573143
0.515945733580578
0.451995575199582
0.454752680036084
0.483011387029333
0.548087584241789
0.603738353924943
0.603821165578021
0.611964051231769
0.629444199274248
0.657419196555744
0.665657569625705
0.661135387042624
0.666333249958308
0.663626400921483
0.655133574166369
0.647070320753472
0.648845127900334
0.656810474946922
0.661059755241537
0.645755371638518
0.63718129288296
0.640624695121879
0.650384501660364
0.63039670049898
0.592368128784796
0.571139212451746
0.567186036499489
0.56718603649949
0.56718603649949
0.568506816142076
0.574020905542647
0.577061521850141
0.551543289325507
0.574717321820041
0.569209978830309
0.573498038357587
0.573585215988
0.573498038357587
0.585832740635073
0.629364759102383
0.655057249406493
0.667532770731146
0.669253315270086
0.671118469422501
0.671118469422501
0.675573830162182
0.647147587494538
0.628092349897688
0.625219961293624
0.626897120746299
0.620483682299543
0.610737259384099
0.591100668245266
0.613106842238774
0.622575296650935
0.54881690936049
0.55874860178796
0.319530906173409
0.36428011200174
0.400124980474851
0.41097445176069
0.403732584763727
0.396988664825584
0.408411557133243
0.428018691180654
0.436119249747131
0.29748949561287
0.335111921602321
0.380788655293196
0.285131548587665
0.312729915422238
0.339558536926993
0.349857113690718
0.334215499341368
0.303315017762063
0.274226184016042
0.251793566240283
0.273861278752583
0.261342686907439
0.259807621135331
0.271845544381363
0.2783882181415
0.288097205817758
0.305777697028412
0.317175030543073
0.322335229225723
0.315594676761189
0.300832179129826
0.283019433961698
0.295972971738974
0.319687347262915
0.344383507154451
0.365102725270573
0.373496987939662
0.377491721763537
0.386264158316559
0.482804308182933
0.474763098818769
0.631901891119183
0.631585306985525
0.633561362458286
0.633245607959502
0.629920629920945
0.623056979737809
0.613595958265698
0.636710295189264
0.621288982680363
0.595986577030054
0.619031501621687
0.627056616263636
0.628649345820069
0.63221831672295
0.603738353924944
0.61846584384265
0.59648973168027
0.577061521850141
0.564358042380899
0.559732078766262
0.55937465083788
0.559910707166777
0.559553393341511
0.561337688027447
0.570350769263968
0.589576118919347
0.609918027279076
0.388715834511535
0.37296112397943
0.358329457343378
0.342344855372473
0.340440890610983
0.351425667816111
0.367423461417476
0.386781592116274
0.3989987468652
0.400249921923789
0.5838664230798
0.583009433885936
0.575847201955519
0.557225268630201
0.496689037527506
0.462709412050371
0.433128156554154
0.301827765455731
0.279105714739058
0.264196896272458
0.253179778023443
0.304466746952767
0.306594194335118
0.312569992161755
0.314960314960472
0.283725219182222
0.29120439557122
0.30967725134404
0.32124756808418
0.31543620591175
0.290860791444979
0.268141753555838
0.265141471671256
0.287228132326901
0.317962261911692
0.32832910318764
0.310161248385416
0.322024843762092
0.305777697028413
0.62449979983984
0.634586479528204
0.62617888817813
0.532353266168246
0.299332590941915
0.319687347262915
0.290516780926679
0.268886593194975
0.32124756808418
0.318433666561813
0.305614135798722
0.30199337741083
0.375499667110372
0.362215405525497
0.336749164809655
0.311929479209645
0.302654919008431
0.308220700148449
0.335261092284804
0.246170672501824
0.315277655408689
0.317017349682947
0.322180073871741
0.320468407179241
0.31224989991992
0.297993288515027
0.27712812921102
0.267020598456374
0.313368792319848
0.315119025131775
0.320936130717625
0.325115364140177
0.328481354113137
0.314006369362152
0.28792360097776
0.266833281282527
0.272029410174709
0.363730669589464
0.365239647354994
0.361524549650505
0.350570962859162
0.353553390593274
0.358050275799364
0.367014986070052
0.374165738677394
0.369459064038223
0.369459064038223
0.386134691526157
0.379341534767813
0.368103246386119
0.311608729017658
0.2849561369755
0.31559467676119
0.364142829120663
0.391024295920343
0.36783148315499
0.317332633052448
0.293087017795057
0.260768096208106
0.238537208837531
0.268700576850888
0.298831055949679
0.301330383466388
0.284429253066558
0.273313007374329
0.290688837074973
0.323419232575925
0.344963766213207
0.339558536926993
0.364554522671164
0.355246393366633
0.394461658466321
0.358468966578699
0.346121365997536
0.330454232837167
0.285306852353742
0.26457513110646
0.234520787991172
0.20445048300261
0.198494332412793
0.219772609758359
0.244744765010409
0.24454038521275
0.242693221990233
0.228035085019828
0.232808934536456
0.264007575648882
0.296816441593117
0.303479818109871
0.29086079144498
0.284604989415154
0.296647939483827
0.318276609256791
0.323109888428071
0.300998338865848
0.245560583156174
0.228473193175917
0.248797106092494
0.282842712474619
0.303809150619267
0.315753068076939
0.310805405358401
0.314006369362152
0.341027858099599
0.371348892552543
0.378945906429928
0.321247568084181
0.293257565972304
0.311126983722081
0.355105618091294
0.383275357934736
0.37589892258425
0.349714169000914
0.343074335968169
0.371483512420134
0.375499667110372
0.381444622455213
0.396232255123179
0.39
0.388844441904472
0.399124040869502
0.342490875790874
0.367014986070051
0.39420806688854
0.391279950930277
0.273130005674953
0.302489669245083
0.329545141065682
0.345832329315811
0.352845575287547
0.352987251894456
0.361524549650504
0.379077828420498
0.376430604494375
0.376430604494374
0.338673884437522
0.288963665535998
0.249399278266798
0.241867732448956
0.399874980462644
0.337934904974316
0.337045990927055
0.370675059857013
0.383927076409049
0.399249295553543
0.344963766213207
0.345398320783411
0.345398320783411
0.347131099154196
0.369052841744918
0.370675059857012
0.370675059857012
0.382753184180092
0.319217793990247
0.265894716006166
0.36180105030251
0.360138862107381
0.361247837363768
0.307571129984593
0.3609709129556
0.356089876295297
0.299165506033031
0.256320112359525
0.251396101799531
0.287749891398764
0.361662826400502
0.234946802489415
0.274408454680245
0.330756708170825
0.385097390279394
0.389358446678635
0.351567916624939
0.36428011200174
0.368646171823335
0.369323706252388
0.395094925302769
0.380657326213486
0.393573373083089
0.391535439009038
0.336600653594137
0.37336309405189
0.336897610558461
0.288617393793237
0.345687720348873
0.33466401061363
0.356230262611138
0.396358423652129
0.379209704517171
0.374432904536981
0.370270171631473
0.387556447501522
0.393827373350304
0.381575680566778
0.366878726556883
0.403112887414927
0.410731055558257
0.413037528561267
0.414004830889689
0.418688428309166
0.431045241245046
0.447437146423942
0.458366665454634
0.457055795281058
0.454422710700071
0.455411901469428
0.462385120867876
0.489693781867812
0.577408001330082
0.700142842568572
0.785557127139714
0.795172937165244
0.800187478032492
0.805170789336027
0.829095893126965
0.831203946092654
0.832646383526645
0.843148859929254
0.851351866151711
0.856270985144306
0.859127464349732
0.86
0.861394218694321
0.864580823289529
0.8682741502544
0.870114934936759
0.870287308881383
0.862032481986613
0.843267454607374
0.816945530620004
0.775048385586345
0.72856022400348
0.693108938046539
0.687895340876794
0.689347517584564
0.683885955404847
0.680955211449329
0.680955211449329
0.666708332031332
0.650230728280355
0.630158710167526
0.600583050043872
0.558927544499285
0.507247474118896
0.448664685483491
0.408411557133243
0.387685439499603
0.3772267222772
0.391407715815618
0.381706693679846
0.372558720203943
0.367695526217005
0.36
0.348711915483254
0.347562943939655
0.345687720348872
0.390768473651599
0.361524549650504
0.391152144312159
0.35916569992136
0.358050275799363
0.272213151776324
0.295465734053883
0.323573793747269
0.328785644455472
0.311769145362398
0.383405790253617
0.387169213652119
0.344528663539045
0.355246393366633
0.379341534767814
0.391918358845309
0.381968585095686
0.38
0.390896405713842
0.344093010681705
0.335410196624968
0.321558703816271
0.311287648325468
0.309515750810844
0.311448230047949
0.308220700148449
0.310644491340181
0.319061122670876
0.340147027033899
0.350998575495685
0.357770876399966
0.370270171631472
0.387814388593306
0.389101529166874
0.387040049607273
0.39736632972611
0.381968585095685
0.39496835316263
0.394334883062607
0.366878726556883
0.377624151769984
0.383927076409049
0.384967531098403
0.380394532032204
0.39408120990476
0.389230009120571
0.3989987468652
0.395474398665704
0.399499687108763
0.4
0.371752605908822
0.399874980462644
0.398371685740842
0.312089730686544
0.332565782966317
0.35213633723318
0.378945906429927
0.390768473651597
0.393446311458119
0.39761790704142
0.360693775937429
0.371214223865411
0.372021504754765
0.372424488990721
0.388715834511536
0.388072158238645
0.364142829120662
0.370135110466434
0.391152144312159
0.396862696659688
0.396736688497547
0.387040049607272
0.39648455203198
0.382099463490855
0.386264158316559
0.39344631145812
0.393827373350304
0.395727178748187
0.393319208785942
0.394968353162629
0.383405790253615
0.398998746865199
0.374699879903903
0.353411940941445
0.340440890610983
0.399749921826133
0.396610640301038
0.399624824053761
0.30199337741083
0.287054001888146
0.28
0.279821371592665
0.271661554144123
0.24698178070457
0.212367605815953
0.193907194296653
0.189472953214964
0.193390796058137
0.19
0.39962482405376
0.399874980462643
0.380394532032204
0.330454232837165
0.344528663539043
0.235159520326096
0.213307290077015
0.32893768406797
0.34132096331752
0.343365694267787
0.39446165846632
0.392428337406971
0.396358423652127
0.369864840178138
0.384707681233426
0.387556447501522
0.380131556174964
0.236431808350737
0.219772609758359
0.221359436211786
0.240624188310319
0.264952825989835
0.280356915377524
0.382753184180093
0.277308492477241
0.690072459963445
0.685784222623997
0.690507060065282
0.703988636271921
0.714142842854284
0.714142842854284
0.60613529842767
0.54744862772684
0.545343928177439
0.547083174663597
0.550272659687904
0.384187454245971
0.373630833845388
0.35637059362411
0.332565782966319
0.31527765540869
0.319061122670877
0.338673884437522
0.363593179253957
0.492848861214065
0.485180378828329
0.457165178026498
0.413642357598929
0.378945906429928
0.345832329315812
0.3
0.300333148353624
0.359722114972099
0.415932686861709
0.434165866921849
0.402492235949962
0.338082830087539
0.287054001888146
0.302654919008431
0.368103246386119
0.537866154354408
0.450777106783386
0.433820239269677
0.463357313528124
0.499099188538712
0.527351874937409
0.544334456010273
0.700785273817879
0.704769465853906
0.679264307909668
0.65612498809297
0.645600495662759
0.653375848956785
0.676091709755415
0.705053189482893
0.73
0.74222638056054
0.737766900856903
0.655057249406492
0.647070320753471
0.623538290724796
0.306594194335118
0.312089730686545
0.3141655614481
0.312089730686544
0.318590646441479
0.357211421989834
0.387814388593306
0.396988664825584
0.359165699921359
0.31859064644148
0.289654967159204
0.279642629082191
0.296647939483826
0.329393381840012
0.353553390593273
0.362215405525496
0.369323706252387
0.376297754444536
0.379077828420498
0.365239647354994
0.337786915081091
0.315753068076939
0.364005494464025
0.35227829907617
0.384707681233427
0.417851648315523
0.417013189239861
0.385097390279394
0.357071421427142
0.350142828000232
0.363868107973205
0.380263066836631
0.38
0.368646171823335
0.328176781628439
0.362629287289376
0.378417758568491
0.374432904536982
0.45066617356975
0.435889894354067
0.399124040869501
0.366333181680283
0.373496987939662
0.305450486986026
0.268141753555839
0.249198715887543
0.261916017074177
0.283901391331568
0.309192496674806
0.343802268753422
0.311287648325467
0.293768616431368
0.283196045170126
0.270739727413617
0.409023226724351
0.386005181312375
0.342782730020051
0.306104557300278
0.325729949498046
0.690507060065282
0.655896333272263
0.607782855960909
0.55578772926361
0.516526862805798
0.499099188538711
0.497594212184989
0.494368283772331
0.473497624070068
0.431624837098144
